Time	SourceV	Current	Voltage
1.029438	9901186.162102	5.049900e-07	5.000000e+00
2.072646	9028204.109639	5.538200e-07	5.000000e+00
3.100504	8536356.341659	5.857300e-07	5.000000e+00
4.127032	8249599.894405	6.060900e-07	5.000000e+00
5.154636	8087212.499596	6.182600e-07	5.000000e+00
6.183500	7889421.863166	6.337600e-07	5.000000e+00
7.207855	7652631.740055	6.533700e-07	5.000000e+00
8.231819	7406529.596492	6.750800e-07	5.000000e+00
9.255908	7155225.461154	6.987900e-07	5.000000e+00
10.280518	6913525.621526	7.232200e-07	5.000000e+00
11.303944	6687174.000267	7.477000e-07	5.000000e+00
12.327578	6474587.245063	7.722500e-07	5.000000e+00
13.351781	6266606.507244	7.978800e-07	5.000000e+00
14.376109	6089763.108215	8.210500e-07	5.000000e+00
15.400598	5924100.425350	8.440100e-07	5.000000e+00
16.424821	5762692.329857	8.676500e-07	5.000000e+00
17.448827	5600295.695613	8.928100e-07	5.000000e+00
18.473160	5451017.159802	9.172600e-07	5.000000e+00
19.497484	5316321.105795	9.405000e-07	5.000000e+00
20.521639	5190059.997094	9.633800e-07	5.000000e+00
21.545872	5069245.898980	9.863400e-07	5.000000e+00
22.569922	5005005.005005	9.990000e-07	5.000000e+00
23.593846	4854368.932039	1.030000e-06	5.000000e+00
24.617626	4742483.164185	1.054300e-06	5.000000e+00
25.640873	4637358.560564	1.078200e-06	5.000000e+00
26.665092	4547521.600728	1.099500e-06	5.000000e+00
27.688821	4460303.300624	1.121000e-06	5.000000e+00
28.711808	4380585.246189	1.141400e-06	5.000000e+00
29.735787	4296640.027498	1.163700e-06	5.000000e+00
30.759619	4224400.135181	1.183600e-06	5.000000e+00
31.783715	4154894.465681	1.203400e-06	5.000000e+00
32.807602	4095004.095004	1.221000e-06	5.000000e+00
33.831824	4032258.064516	1.240000e-06	5.000000e+00
34.858256	3972352.427107	1.258700e-06	5.000000e+00
35.881898	3919109.578304	1.275800e-06	5.000000e+00
36.905932	3869070.649230	1.292300e-06	5.000000e+00
37.929878	3825262.030449	1.307100e-06	5.000000e+00
38.954273	3780146.669691	1.322700e-06	5.000000e+00
39.978024	3736362.277686	1.338200e-06	5.000000e+00
41.001647	3692216.806971	1.354200e-06	5.000000e+00
42.025598	3652567.755132	1.368900e-06	5.000000e+00
43.050028	3612716.763006	1.384000e-06	5.000000e+00
44.073798	3576026.319554	1.398200e-06	5.000000e+00
45.097663	3538820.864888	1.412900e-06	5.000000e+00
46.121752	3504099.796762	1.426900e-06	5.000000e+00
47.146115	3474876.641879	1.438900e-06	5.000000e+00
48.170572	3442340.791738	1.452500e-06	5.000000e+00
49.193969	3411572.052402	1.465600e-06	5.000000e+00
50.217953	3383407.768304	1.477800e-06	5.000000e+00
51.242500	3351880.404907	1.491700e-06	5.000000e+00
52.266951	3326901.324107	1.502900e-06	5.000000e+00
53.290883	3301637.612256	1.514400e-06	5.000000e+00
54.314826	3275895.957544	1.526300e-06	5.000000e+00
55.339720	3250130.005200	1.538400e-06	5.000000e+00
56.363572	3228097.359416	1.548900e-06	5.000000e+00
57.387842	3203280.158883	1.560900e-06	5.000000e+00
58.412660	3183902.190525	1.570400e-06	5.000000e+00
59.436465	3159957.024584	1.582300e-06	5.000000e+00
60.460661	3139323.161926	1.592700e-06	5.000000e+00
61.484941	3119346.185040	1.602900e-06	5.000000e+00
62.508694	3101352.189555	1.612200e-06	5.000000e+00
63.532788	3084135.208488	1.621200e-06	5.000000e+00
64.556722	3062974.761088	1.632400e-06	5.000000e+00
65.580664	3042658.066087	1.643300e-06	5.000000e+00
66.604996	3021148.036254	1.655000e-06	5.000000e+00
67.628897	3000480.076812	1.666400e-06	5.000000e+00
68.652973	2982048.070615	1.676700e-06	5.000000e+00
69.676842	2962436.307619	1.687800e-06	5.000000e+00
70.700879	2946723.243753	1.696800e-06	5.000000e+00
71.724998	2924831.822170	1.709500e-06	5.000000e+00
72.749491	2906469.801779	1.720300e-06	5.000000e+00
73.773671	2889672.311160	1.730300e-06	5.000000e+00
74.797963	2871912.693854	1.741000e-06	5.000000e+00
75.821803	2855185.015989	1.751200e-06	5.000000e+00
76.845719	2838651.073010	1.761400e-06	5.000000e+00
77.869864	2823901.502316	1.770600e-06	5.000000e+00
78.893906	2809778.027536	1.779500e-06	5.000000e+00
79.918508	2797202.797203	1.787500e-06	5.000000e+00
80.942558	2785515.320334	1.795000e-06	5.000000e+00
81.967591	2771464.996397	1.804100e-06	5.000000e+00
82.991834	2761668.047501	1.810500e-06	5.000000e+00
84.015942	2746347.358014	1.820600e-06	5.000000e+00
85.040025	2730151.796440	1.831400e-06	5.000000e+00
86.064884	2713556.930424	1.842600e-06	5.000000e+00
87.088885	2697308.086530	1.853700e-06	5.000000e+00
88.112807	2680677.675316	1.865200e-06	5.000000e+00
89.138316	2662406.815761	1.878000e-06	5.000000e+00
90.163780	2645082.791091	1.890300e-06	5.000000e+00
91.187645	2628811.777077	1.902000e-06	5.000000e+00
92.211185	2614242.392555	1.912600e-06	5.000000e+00
93.235522	2600644.959950	1.922600e-06	5.000000e+00
94.259808	2586920.529801	1.932800e-06	5.000000e+00
95.285637	2572942.932126	1.943300e-06	5.000000e+00
96.309503	2560032.768419	1.953100e-06	5.000000e+00
97.332815	2547251.515615	1.962900e-06	5.000000e+00
98.356860	2536011.361331	1.971600e-06	5.000000e+00
99.380673	2525507.627033	1.979800e-06	5.000000e+00
100.404726	2514078.841512	1.988800e-06	5.000000e+00
101.429017	2502502.502503	1.998000e-06	5.000000e+00
102.453942	2488057.324841	2.009600e-06	5.000000e+00
103.478575	2473410.833539	2.021500e-06	5.000000e+00
104.501875	2464511.041009	2.028800e-06	5.000000e+00
105.525992	2454469.589122	2.037100e-06	5.000000e+00
106.550025	2441763.930263	2.047700e-06	5.000000e+00
107.574911	2426831.044023	2.060300e-06	5.000000e+00
108.598871	2412894.508252	2.072200e-06	5.000000e+00
109.623394	2397736.536709	2.085300e-06	5.000000e+00
110.647860	2387318.563789	2.094400e-06	5.000000e+00
111.673549	2375522.614975	2.104800e-06	5.000000e+00
112.696888	2364625.206905	2.114500e-06	5.000000e+00
113.720958	2353494.939986	2.124500e-06	5.000000e+00
114.745678	2340495.248795	2.136300e-06	5.000000e+00
115.769744	2330350.484713	2.145600e-06	5.000000e+00
116.794124	2316852.787174	2.158100e-06	5.000000e+00
117.817986	2303510.550078	2.170600e-06	5.000000e+00
118.841957	2292105.986981	2.181400e-06	5.000000e+00
119.866562	2278942.570647	2.194000e-06	5.000000e+00
120.890114	2264492.753623	2.208000e-06	5.000000e+00
121.913966	2254181.506695	2.218100e-06	5.000000e+00
122.937974	2241047.017166	2.231100e-06	5.000000e+00
123.961933	2231047.253581	2.241100e-06	5.000000e+00
124.985937	2220248.667851	2.252000e-06	5.000000e+00
126.010286	2215035.662074	2.257300e-06	5.000000e+00
127.033950	2203031.371167	2.269600e-06	5.000000e+00
128.057526	2201479.394153	2.271200e-06	5.000000e+00
129.080744	2204682.746153	2.267900e-06	5.000000e+00
130.105035	2209456.473707	2.263000e-06	5.000000e+00
131.128767	2205071.664829	2.267500e-06	5.000000e+00
132.152701	2204585.537919	2.268000e-06	5.000000e+00
133.176809	2204877.188341	2.267700e-06	5.000000e+00
134.201526	2199832.812706	2.272900e-06	5.000000e+00
135.227038	2183310.772455	2.290100e-06	5.000000e+00
136.249846	2168256.721596	2.306000e-06	5.000000e+00
137.273736	2153223.375393	2.322100e-06	5.000000e+00
138.298113	2128927.871924	2.348600e-06	5.000000e+00
139.321912	2114433.120480	2.364700e-06	5.000000e+00
140.345744	2100840.336134	2.380000e-06	5.000000e+00
141.369678	2088205.813565	2.394400e-06	5.000000e+00
142.393289	2078397.140126	2.405700e-06	5.000000e+00
143.417741	2066798.941799	2.419200e-06	5.000000e+00
144.442067	2053556.760309	2.434800e-06	5.000000e+00
145.466774	2042567.098329	2.447900e-06	5.000000e+00
146.491420	2032272.487095	2.460300e-06	5.000000e+00
147.514698	2022653.721683	2.472000e-06	5.000000e+00
148.540492	2015235.177945	2.481100e-06	5.000000e+00
149.563945	2008838.891121	2.489000e-06	5.000000e+00
150.587967	1999280.259107	2.500900e-06	5.000000e+00
151.611962	1991476.480663	2.510700e-06	5.000000e+00
152.636741	1983103.954309	2.521300e-06	5.000000e+00
153.661078	1976050.270719	2.530300e-06	5.000000e+00
154.685158	1968503.937008	2.540000e-06	5.000000e+00
155.709625	1962785.585303	2.547400e-06	5.000000e+00
156.735019	1954270.080125	2.558500e-06	5.000000e+00
157.758682	1947495.520760	2.567400e-06	5.000000e+00
158.782940	1939412.745821	2.578100e-06	5.000000e+00
159.808297	1926188.458279	2.595800e-06	5.000000e+00
160.832826	1916443.081640	2.609000e-06	5.000000e+00
161.856808	1910584.638900	2.617000e-06	5.000000e+00
162.880629	1903819.061036	2.626300e-06	5.000000e+00
163.904318	1894513.488936	2.639200e-06	5.000000e+00
164.928928	1888431.468822	2.647700e-06	5.000000e+00
165.952773	1880689.084481	2.658600e-06	5.000000e+00
166.976748	1873922.494566	2.668200e-06	5.000000e+00
168.001517	1868320.753307	2.676200e-06	5.000000e+00
169.026122	1862058.692090	2.685200e-06	5.000000e+00
170.050058	1853636.835471	2.697400e-06	5.000000e+00
171.074034	1848155.540770	2.705400e-06	5.000000e+00
172.098445	1842978.252857	2.713000e-06	5.000000e+00
173.122630	1838640.876664	2.719400e-06	5.000000e+00
174.146071	1831904.447864	2.729400e-06	5.000000e+00
175.170592	1826484.018265	2.737500e-06	5.000000e+00
176.194465	1819703.752229	2.747700e-06	5.000000e+00
177.218025	1812250.815513	2.759000e-06	5.000000e+00
178.241804	1804532.986863	2.770800e-06	5.000000e+00
179.267064	1795332.136445	2.785000e-06	5.000000e+00
180.291119	1786671.431124	2.798500e-06	5.000000e+00
181.314951	1779422.755258	2.809900e-06	5.000000e+00
182.338789	1772546.795235	2.820800e-06	5.000000e+00
183.362642	1763792.860167	2.834800e-06	5.000000e+00
184.387372	1757160.428747	2.845500e-06	5.000000e+00
185.411888	1755186.576333	2.848700e-06	5.000000e+00
186.435818	1749597.592554	2.857800e-06	5.000000e+00
187.459910	1741796.140180	2.870600e-06	5.000000e+00
188.483989	1734063.952279	2.883400e-06	5.000000e+00
189.508066	1728847.550223	2.892100e-06	5.000000e+00
190.531978	1723246.596588	2.901500e-06	5.000000e+00
191.555913	1720104.582359	2.906800e-06	5.000000e+00
192.580234	1713796.058269	2.917500e-06	5.000000e+00
193.604959	1709226.404129	2.925300e-06	5.000000e+00
194.628802	1702011.777922	2.937700e-06	5.000000e+00
195.652779	1694685.466377	2.950400e-06	5.000000e+00
196.677523	1691703.884152	2.955600e-06	5.000000e+00
197.702501	1689874.273354	2.958800e-06	5.000000e+00
198.727155	1685487.948761	2.966500e-06	5.000000e+00
199.751157	1679599.583459	2.976900e-06	5.000000e+00
200.775969	1673976.363454	2.986900e-06	5.000000e+00
201.799961	1667278.001934	2.998900e-06	5.000000e+00
202.825858	1660357.308893	3.011400e-06	5.000000e+00
203.849892	1653165.812531	3.024500e-06	5.000000e+00
204.873943	1649729.444371	3.030800e-06	5.000000e+00
205.898901	1645494.635687	3.038600e-06	5.000000e+00
206.923542	1639183.031177	3.050300e-06	5.000000e+00
207.947016	1633826.749012	3.060300e-06	5.000000e+00
208.970987	1627392.266632	3.072400e-06	5.000000e+00
209.994770	1621639.152856	3.083300e-06	5.000000e+00
211.018877	1614048.679708	3.097800e-06	5.000000e+00
212.042180	1608855.138683	3.107800e-06	5.000000e+00
213.065879	1603437.770580	3.118300e-06	5.000000e+00
214.089801	1597954.618089	3.129000e-06	5.000000e+00
215.113989	1593270.027404	3.138200e-06	5.000000e+00
216.137736	1587956.934608	3.148700e-06	5.000000e+00
217.161704	1583531.274743	3.157500e-06	5.000000e+00
218.185752	1578233.010322	3.168100e-06	5.000000e+00
219.210040	1573118.550214	3.178400e-06	5.000000e+00
220.233748	1567987.957852	3.188800e-06	5.000000e+00
221.258312	1563917.300053	3.197100e-06	5.000000e+00
222.282600	1557583.875892	3.210100e-06	5.000000e+00
223.306778	1552553.951250	3.220500e-06	5.000000e+00
224.330985	1547364.837681	3.231300e-06	5.000000e+00
225.354865	1542353.013758	3.241800e-06	5.000000e+00
226.378885	1537468.097537	3.252100e-06	5.000000e+00
227.403562	1533742.331288	3.260000e-06	5.000000e+00
228.427906	1529706.908156	3.268600e-06	5.000000e+00
229.451810	1525832.341542	3.276900e-06	5.000000e+00
230.475852	1520912.547529	3.287500e-06	5.000000e+00
231.500780	1515335.192145	3.299600e-06	5.000000e+00
232.524139	1510756.586899	3.309600e-06	5.000000e+00
233.547872	1506568.639267	3.318800e-06	5.000000e+00
234.571903	1502358.703164	3.328100e-06	5.000000e+00
235.596058	1497678.598173	3.338500e-06	5.000000e+00
236.620028	1493116.731866	3.348700e-06	5.000000e+00
237.644255	1490401.812329	3.354800e-06	5.000000e+00
238.668060	1486856.191269	3.362800e-06	5.000000e+00
239.692106	1482359.916988	3.373000e-06	5.000000e+00
240.716179	1478546.293284	3.381700e-06	5.000000e+00
241.740664	1474621.759519	3.390700e-06	5.000000e+00
242.764697	1469810.100535	3.401800e-06	5.000000e+00
243.787812	1465545.036199	3.411700e-06	5.000000e+00
244.811913	1460877.695319	3.422600e-06	5.000000e+00
245.837740	1456324.818688	3.433300e-06	5.000000e+00
246.861212	1451505.210904	3.444700e-06	5.000000e+00
247.886827	1446257.086660	3.457200e-06	5.000000e+00
248.911035	1441794.746100	3.467900e-06	5.000000e+00
249.934923	1436699.040285	3.480200e-06	5.000000e+00
250.959928	1433116.455043	3.488900e-06	5.000000e+00
251.985100	1429347.359995	3.498100e-06	5.000000e+00
253.009115	1424826.171207	3.509200e-06	5.000000e+00
254.033833	1421464.108031	3.517500e-06	5.000000e+00
255.057942	1419124.116595	3.523300e-06	5.000000e+00
256.082550	1414147.127867	3.535700e-06	5.000000e+00
257.107164	1412389.480523	3.540100e-06	5.000000e+00
258.131087	1407103.056228	3.553400e-06	5.000000e+00
259.156315	1405402.366698	3.557700e-06	5.000000e+00
260.180695	1402957.434271	3.563900e-06	5.000000e+00
261.204024	1400756.408461	3.569500e-06	5.000000e+00
262.227978	1395985.146718	3.581700e-06	5.000000e+00
263.252542	1392951.664577	3.589500e-06	5.000000e+00
264.276951	1389236.197938	3.599100e-06	5.000000e+00
265.300676	1385348.553696	3.609200e-06	5.000000e+00
266.324793	1380452.788515	3.622000e-06	5.000000e+00
267.348862	1375099.694728	3.636100e-06	5.000000e+00
268.372866	1369075.326524	3.652100e-06	5.000000e+00
269.396958	1365001.365001	3.663000e-06	5.000000e+00
270.420929	1360803.418338	3.674300e-06	5.000000e+00
271.445426	1357736.381904	3.682600e-06	5.000000e+00
272.469892	1354462.955438	3.691500e-06	5.000000e+00
273.494639	1349819.124237	3.704200e-06	5.000000e+00
274.517932	1347236.817288	3.711300e-06	5.000000e+00
275.542030	1345134.647978	3.717100e-06	5.000000e+00
276.568199	1342534.167495	3.724300e-06	5.000000e+00
277.592675	1339728.303100	3.732100e-06	5.000000e+00
278.615923	1338222.305489	3.736300e-06	5.000000e+00
279.639908	1336398.139734	3.741400e-06	5.000000e+00
280.663860	1333013.410115	3.750900e-06	5.000000e+00
281.688060	1329928.715821	3.759600e-06	5.000000e+00
282.711968	1327703.868929	3.765900e-06	5.000000e+00
283.735863	1323486.593081	3.777900e-06	5.000000e+00
284.759896	1319435.281699	3.789500e-06	5.000000e+00
285.784064	1314198.601693	3.804600e-06	5.000000e+00
286.807996	1309723.386421	3.817600e-06	5.000000e+00
287.831976	1305040.064730	3.831300e-06	5.000000e+00
288.856056	1301812.122474	3.840800e-06	5.000000e+00
289.880825	1297925.914389	3.852300e-06	5.000000e+00
290.904784	1293292.982592	3.866100e-06	5.000000e+00
291.929058	1287564.700126	3.883300e-06	5.000000e+00
292.953108	1286008.230453	3.888000e-06	5.000000e+00
293.977948	1283137.013370	3.896700e-06	5.000000e+00
295.001974	1279918.085243	3.906500e-06	5.000000e+00
296.025164	1276096.166607	3.918200e-06	5.000000e+00
297.049830	1273463.566207	3.926300e-06	5.000000e+00
298.075680	1270906.410452	3.934200e-06	5.000000e+00
299.098867	1267523.512561	3.944700e-06	5.000000e+00
300.122874	1264062.697510	3.955500e-06	5.000000e+00
301.148140	1262913.288374	3.959100e-06	5.000000e+00
302.172983	1260938.642726	3.965300e-06	5.000000e+00
303.197065	1258051.529791	3.974400e-06	5.000000e+00
304.220975	1254736.630781	3.984900e-06	5.000000e+00
305.245499	1251407.833813	3.995500e-06	5.000000e+00
306.270089	1247193.813919	4.009000e-06	5.000000e+00
307.294016	1243997.711044	4.019300e-06	5.000000e+00
308.318026	1241064.336775	4.028800e-06	5.000000e+00
309.342259	1238574.153435	4.036900e-06	5.000000e+00
310.366033	1235055.824523	4.048400e-06	5.000000e+00
311.389870	1231678.778175	4.059500e-06	5.000000e+00
312.413944	1228229.629812	4.070900e-06	5.000000e+00
313.438449	1225700.487829	4.079300e-06	5.000000e+00
314.462692	1223451.110894	4.086800e-06	5.000000e+00
315.486993	1221418.800078	4.093600e-06	5.000000e+00
316.511056	1217581.882382	4.106500e-06	5.000000e+00
317.536231	1212885.697652	4.122400e-06	5.000000e+00
318.559960	1210507.202518	4.130500e-06	5.000000e+00
319.583984	1207262.893568	4.141600e-06	5.000000e+00
320.607998	1204993.493035	4.149400e-06	5.000000e+00
321.632277	1202183.164627	4.159100e-06	5.000000e+00
322.656973	1199644.905108	4.167900e-06	5.000000e+00
323.680763	1197231.999617	4.176300e-06	5.000000e+00
324.704170	1193858.790382	4.188100e-06	5.000000e+00
325.728055	1190617.930706	4.199500e-06	5.000000e+00
326.752287	1187648.456057	4.210000e-06	5.000000e+00
327.775829	1185199.231991	4.218700e-06	5.000000e+00
328.799678	1181893.393216	4.230500e-06	5.000000e+00
329.823377	1178217.121851	4.243700e-06	5.000000e+00
330.847817	1175613.082222	4.253100e-06	5.000000e+00
331.871686	1172332.942556	4.265000e-06	5.000000e+00
332.895688	1169508.572498	4.275300e-06	5.000000e+00
333.919930	1167079.034592	4.284200e-06	5.000000e+00
334.944116	1163765.012569	4.296400e-06	5.000000e+00
335.967994	1159474.062565	4.312300e-06	5.000000e+00
336.991909	1156711.238606	4.322600e-06	5.000000e+00
338.016665	1153163.126456	4.335900e-06	5.000000e+00
339.040713	1148501.205926	4.353500e-06	5.000000e+00
340.064046	1145632.847585	4.364400e-06	5.000000e+00
341.088029	1143772.160586	4.371500e-06	5.000000e+00
342.112946	1141265.892128	4.381100e-06	5.000000e+00
343.137933	1138485.359078	4.391800e-06	5.000000e+00
344.162737	1136828.702651	4.398200e-06	5.000000e+00
345.185999	1133118.796175	4.412600e-06	5.000000e+00
346.209727	1130147.823335	4.424200e-06	5.000000e+00
347.233823	1126709.782094	4.437700e-06	5.000000e+00
348.257901	1123519.762713	4.450300e-06	5.000000e+00
349.281869	1121051.097509	4.460100e-06	5.000000e+00
350.305754	1118218.007783	4.471400e-06	5.000000e+00
351.329836	1115648.079970	4.481700e-06	5.000000e+00
352.353102	1113164.280785	4.491700e-06	5.000000e+00
353.377209	1110370.863869	4.503000e-06	5.000000e+00
354.401935	1107444.240183	4.514900e-06	5.000000e+00
355.426191	1104459.808708	4.527100e-06	5.000000e+00
356.450683	1100957.833315	4.541500e-06	5.000000e+00
357.474139	1098563.079492	4.551400e-06	5.000000e+00
358.498190	1095434.230129	4.564400e-06	5.000000e+00
359.522134	1093732.910423	4.571500e-06	5.000000e+00
360.546133	1092633.465178	4.576100e-06	5.000000e+00
361.569947	1090346.075844	4.585700e-06	5.000000e+00
362.594593	1088494.611952	4.593500e-06	5.000000e+00
363.618958	1086932.892763	4.600100e-06	5.000000e+00
364.642207	1084622.226079	4.609900e-06	5.000000e+00
365.665899	1082415.084537	4.619300e-06	5.000000e+00
366.690505	1080730.573868	4.626500e-06	5.000000e+00
367.714956	1077354.018530	4.641000e-06	5.000000e+00
368.738199	1073445.114751	4.657900e-06	5.000000e+00
369.762151	1070526.270715	4.670600e-06	5.000000e+00
370.786628	1068330.413230	4.680200e-06	5.000000e+00
371.811677	1064849.323821	4.695500e-06	5.000000e+00
372.835734	1061593.664409	4.709900e-06	5.000000e+00
373.859063	1059142.518217	4.720800e-06	5.000000e+00
374.883587	1057462.512954	4.728300e-06	5.000000e+00
375.908657	1054785.562095	4.740300e-06	5.000000e+00
376.932119	1052055.716871	4.752600e-06	5.000000e+00
377.956156	1048767.697955	4.767500e-06	5.000000e+00
378.980487	1047208.143091	4.774600e-06	5.000000e+00
380.004802	1044932.079415	4.785000e-06	5.000000e+00
381.028801	1041666.666667	4.800000e-06	5.000000e+00
382.052372	1039911.815478	4.808100e-06	5.000000e+00
383.076011	1038292.216962	4.815600e-06	5.000000e+00
384.099913	1035539.723304	4.828400e-06	5.000000e+00
385.124072	1031310.589497	4.848200e-06	5.000000e+00
386.148092	1029675.240429	4.855900e-06	5.000000e+00
387.172858	1028150.768029	4.863100e-06	5.000000e+00
388.197980	1025556.877384	4.875400e-06	5.000000e+00
389.221922	1023876.807143	4.883400e-06	5.000000e+00
390.245908	1022139.542490	4.891700e-06	5.000000e+00
391.270254	1019763.007077	4.903100e-06	5.000000e+00
392.295718	1018205.514601	4.910600e-06	5.000000e+00
393.319797	1015104.758811	4.925600e-06	5.000000e+00
394.343026	1012391.674091	4.938800e-06	5.000000e+00
395.367142	1010590.993613	4.947600e-06	5.000000e+00
