Time	SourceV	Current	Voltage
1.028820	7332871.634008	2.454700e-07	1.800000e+00
2.073622	6471793.765505	2.781300e-07	1.800000e+00
3.102035	6057546.693589	2.971500e-07	1.800000e+00
4.130643	5785920.925747	3.111000e-07	1.800000e+00
5.157923	5574999.225695	3.228700e-07	1.800000e+00
6.186646	5410604.785379	3.326800e-07	1.800000e+00
7.210549	5265775.385426	3.418300e-07	1.800000e+00
8.234714	5156263.427769	3.490900e-07	1.800000e+00
9.258437	5046115.892462	3.567100e-07	1.800000e+00
10.282386	4962505.513895	3.627200e-07	1.800000e+00
11.306518	4878445.402065	3.689700e-07	1.800000e+00
12.330631	4812062.236005	3.740600e-07	1.800000e+00
13.355270	4744458.209231	3.793900e-07	1.800000e+00
14.380283	4692999.608917	3.835500e-07	1.800000e+00
15.404356	4639175.257732	3.880000e-07	1.800000e+00
16.427627	4586104.104563	3.924900e-07	1.800000e+00
17.452373	4533205.731987	3.970700e-07	1.800000e+00
18.476451	4483969.807937	4.014300e-07	1.800000e+00
19.501060	4424887.534109	4.067900e-07	1.800000e+00
20.526238	4365435.452186	4.123300e-07	1.800000e+00
21.550226	4304778.303917	4.181400e-07	1.800000e+00
22.573606	4244081.863624	4.241200e-07	1.800000e+00
23.598062	4180213.655365	4.306000e-07	1.800000e+00
24.621632	4119370.194068	4.369600e-07	1.800000e+00
25.645553	4060180.903616	4.433300e-07	1.800000e+00
26.669411	4004627.569636	4.494800e-07	1.800000e+00
27.694081	3946070.371588	4.561500e-07	1.800000e+00
28.718324	3900578.585824	4.614700e-07	1.800000e+00
29.742287	3841803.086248	4.685300e-07	1.800000e+00
30.765570	3789633.247716	4.749800e-07	1.800000e+00
31.790176	3740726.116503	4.811900e-07	1.800000e+00
32.814475	3697465.182203	4.868200e-07	1.800000e+00
33.838427	3651782.272626	4.929100e-07	1.800000e+00
34.862508	3609094.919196	4.987400e-07	1.800000e+00
35.887032	3570578.433706	5.041200e-07	1.800000e+00
36.910672	3527336.860670	5.103000e-07	1.800000e+00
37.934523	3486750.348675	5.162400e-07	1.800000e+00
38.958432	3449795.887077	5.217700e-07	1.800000e+00
39.983139	3416921.353860	5.267900e-07	1.800000e+00
41.007499	3381043.615463	5.323800e-07	1.800000e+00
42.031528	3352267.436447	5.369500e-07	1.800000e+00
43.055760	3321646.060159	5.419000e-07	1.800000e+00
44.079806	3292301.501655	5.467300e-07	1.800000e+00
45.103423	3258685.301519	5.523700e-07	1.800000e+00
46.127372	3227657.437957	5.576800e-07	1.800000e+00
47.150671	3195058.309814	5.633700e-07	1.800000e+00
48.174858	3166004.150983	5.685400e-07	1.800000e+00
49.198586	3137911.197113	5.736300e-07	1.800000e+00
50.223273	3110634.915149	5.786600e-07	1.800000e+00
51.247737	3083089.255434	5.838300e-07	1.800000e+00
52.272250	3057065.217391	5.888000e-07	1.800000e+00
53.295733	3031630.006400	5.937400e-07	1.800000e+00
54.319507	3005108.684764	5.989800e-07	1.800000e+00
55.343557	2977618.236257	6.045100e-07	1.800000e+00
56.368160	2952901.225454	6.095700e-07	1.800000e+00
57.392718	2926686.503097	6.150300e-07	1.800000e+00
58.416649	2902617.193169	6.201300e-07	1.800000e+00
59.440590	2878802.418194	6.252600e-07	1.800000e+00
60.464939	2855103.497502	6.304500e-07	1.800000e+00
61.489770	2836119.558196	6.346700e-07	1.800000e+00
62.514530	2819902.243389	6.383200e-07	1.800000e+00
63.539541	2810831.069053	6.403800e-07	1.800000e+00
64.564939	2797420.156966	6.434500e-07	1.800000e+00
65.590201	2779708.130646	6.475500e-07	1.800000e+00
66.614498	2757479.663587	6.527700e-07	1.800000e+00
67.638818	2743149.745497	6.561800e-07	1.800000e+00
68.700123	2723641.205665	6.608800e-07	1.800000e+00
69.726188	2717022.143730	6.624900e-07	1.800000e+00
70.759588	2705953.096813	6.652000e-07	1.800000e+00
71.831807	2694812.485965	6.679500e-07	1.800000e+00
72.860918	2667931.463805	6.746800e-07	1.800000e+00
73.886321	2649162.570276	6.794600e-07	1.800000e+00
74.913127	2627315.321627	6.851100e-07	1.800000e+00
75.937934	2614568.959256	6.884500e-07	1.800000e+00
76.963396	2603300.406404	6.914300e-07	1.800000e+00
78.006740	2594706.798132	6.937200e-07	1.800000e+00
79.080548	2583868.050472	6.966300e-07	1.800000e+00
80.106081	2572494.319075	6.997100e-07	1.800000e+00
81.133309	2555620.234833	7.043300e-07	1.800000e+00
82.166724	2537462.819121	7.093700e-07	1.800000e+00
83.218320	2522633.629509	7.135400e-07	1.800000e+00
84.243481	2511756.415445	7.166300e-07	1.800000e+00
85.269398	2498577.199095	7.204100e-07	1.800000e+00
86.294531	2483820.668148	7.246900e-07	1.800000e+00
87.318515	2473716.759431	7.276500e-07	1.800000e+00
88.344224	2467646.413687	7.294400e-07	1.800000e+00
89.369190	2454958.333902	7.332100e-07	1.800000e+00
90.394785	2445187.056810	7.361400e-07	1.800000e+00
91.418472	2436152.503147	7.388700e-07	1.800000e+00
92.441534	2423361.201987	7.427700e-07	1.800000e+00
93.465505	2408961.336171	7.472100e-07	1.800000e+00
94.489635	2399200.266578	7.502500e-07	1.800000e+00
95.513517	2389771.776795	7.532100e-07	1.800000e+00
96.537894	2377430.262046	7.571200e-07	1.800000e+00
97.562752	2374262.989197	7.581300e-07	1.800000e+00
98.586934	2366272.726078	7.606900e-07	1.800000e+00
99.610674	2358675.996541	7.631400e-07	1.800000e+00
100.635458	2348765.593194	7.663600e-07	1.800000e+00
101.659738	2344635.344075	7.677100e-07	1.800000e+00
102.685902	2333601.265330	7.713400e-07	1.800000e+00
103.709811	2325611.442008	7.739900e-07	1.800000e+00
104.733757	2311070.025422	7.788600e-07	1.800000e+00
105.758000	2298850.574713	7.830000e-07	1.800000e+00
106.782972	2285249.980956	7.876600e-07	1.800000e+00
107.807769	2275111.543663	7.911700e-07	1.800000e+00
108.831522	2264863.164517	7.947500e-07	1.800000e+00
109.855286	2258270.917234	7.970700e-07	1.800000e+00
110.879518	2258157.594309	7.971100e-07	1.800000e+00
111.903544	2257619.465697	7.973000e-07	1.800000e+00
112.926932	2254113.757608	7.985400e-07	1.800000e+00
113.951191	2245901.230255	8.014600e-07	1.800000e+00
114.977052	2240394.309398	8.034300e-07	1.800000e+00
116.001726	2231174.465448	8.067500e-07	1.800000e+00
117.025989	2229543.934402	8.073400e-07	1.800000e+00
118.050500	2226097.280451	8.085900e-07	1.800000e+00
119.075498	2227199.049728	8.081900e-07	1.800000e+00
120.099794	2212117.488018	8.137000e-07	1.800000e+00
121.124974	2200381.399443	8.180400e-07	1.800000e+00
122.149968	2189061.986939	8.222700e-07	1.800000e+00
123.175286	2175726.148602	8.273100e-07	1.800000e+00
124.204143	2169981.916817	8.295000e-07	1.800000e+00
125.228831	2162889.620533	8.322200e-07	1.800000e+00
126.252665	2155662.806433	8.350100e-07	1.800000e+00
127.276667	2151154.452890	8.367600e-07	1.800000e+00
128.301713	2139876.600449	8.411700e-07	1.800000e+00
129.326634	2130202.724293	8.449900e-07	1.800000e+00
130.350006	2123017.043109	8.478500e-07	1.800000e+00
131.373943	2124946.876328	8.470800e-07	1.800000e+00
132.398312	2118993.242766	8.494600e-07	1.800000e+00
133.422023	2129799.443886	8.451500e-07	1.800000e+00
134.446651	2116252.821670	8.505600e-07	1.800000e+00
135.470897	2106248.537327	8.546000e-07	1.800000e+00
136.495195	2096753.526623	8.584700e-07	1.800000e+00
137.521880	2091005.192663	8.608300e-07	1.800000e+00
138.546673	2084418.968213	8.635500e-07	1.800000e+00
139.570279	2084322.421519	8.635900e-07	1.800000e+00
140.597662	2075933.016561	8.670800e-07	1.800000e+00
141.622118	2071108.042803	8.691000e-07	1.800000e+00
142.646719	2063179.129797	8.724400e-07	1.800000e+00
143.671074	2057871.931770	8.746900e-07	1.800000e+00
144.694991	2048783.819161	8.785700e-07	1.800000e+00
145.719634	2043341.544539	8.809100e-07	1.800000e+00
146.743730	2037097.814647	8.836100e-07	1.800000e+00
147.767066	2034013.221086	8.849500e-07	1.800000e+00
148.790939	2023790.785006	8.894200e-07	1.800000e+00
149.815546	2015564.638038	8.930500e-07	1.800000e+00
150.839064	2010476.818085	8.953100e-07	1.800000e+00
151.863161	2009511.688660	8.957400e-07	1.800000e+00
152.887170	2006465.277004	8.971000e-07	1.800000e+00
153.911764	2003628.794372	8.983700e-07	1.800000e+00
154.936201	2001245.219248	8.994400e-07	1.800000e+00
155.960142	1997868.939798	9.009600e-07	1.800000e+00
156.984049	1999333.555482	9.003000e-07	1.800000e+00
158.008112	2001245.219248	8.994400e-07	1.800000e+00
159.031980	1996915.874372	9.013900e-07	1.800000e+00
160.055968	1992009.827248	9.036100e-07	1.800000e+00
161.079882	1992472.880230	9.034000e-07	1.800000e+00
162.105749	1982750.074353	9.078300e-07	1.800000e+00
163.132037	1972948.681413	9.123400e-07	1.800000e+00
164.156047	1965387.345089	9.158500e-07	1.800000e+00
165.193751	1958885.176681	9.188900e-07	1.800000e+00
166.217056	1953125.000000	9.216000e-07	1.800000e+00
167.240874	1947841.142733	9.241000e-07	1.800000e+00
168.265680	1940052.381414	9.278100e-07	1.800000e+00
169.289963	1938777.708365	9.284200e-07	1.800000e+00
170.313940	1933737.269563	9.308400e-07	1.800000e+00
171.338189	1931475.540008	9.319300e-07	1.800000e+00
172.362740	1927525.057826	9.338400e-07	1.800000e+00
173.387682	1925339.608514	9.349000e-07	1.800000e+00
174.412014	1920881.044106	9.370700e-07	1.800000e+00
175.436031	1914669.559945	9.401100e-07	1.800000e+00
176.460484	1909875.115388	9.424700e-07	1.800000e+00
177.486730	1908275.554990	9.432600e-07	1.800000e+00
178.510736	1902567.409020	9.460900e-07	1.800000e+00
179.534068	1898113.486096	9.483100e-07	1.800000e+00
180.558366	1894039.038249	9.503500e-07	1.800000e+00
181.583742	1892207.259769	9.512700e-07	1.800000e+00
182.607995	1895235.588313	9.497500e-07	1.800000e+00
183.631921	1892008.366881	9.513700e-07	1.800000e+00
184.658476	1888752.478988	9.530100e-07	1.800000e+00
185.682986	1886219.073866	9.542900e-07	1.800000e+00
186.707834	1880170.468789	9.573600e-07	1.800000e+00
187.732117	1875996.623206	9.594900e-07	1.800000e+00
188.757063	1869430.654508	9.628600e-07	1.800000e+00
189.781796	1865130.351888	9.650800e-07	1.800000e+00
190.808270	1860215.164887	9.676300e-07	1.800000e+00
191.832309	1857508.461983	9.690400e-07	1.800000e+00
192.856207	1855134.600322	9.702800e-07	1.800000e+00
193.882521	1852499.845625	9.716600e-07	1.800000e+00
194.907777	1854389.236301	9.706700e-07	1.800000e+00
195.932000	1852576.110002	9.716200e-07	1.800000e+00
196.956035	1852881.230313	9.714600e-07	1.800000e+00
197.979928	1853587.206129	9.710900e-07	1.800000e+00
199.005119	1854255.516410	9.707400e-07	1.800000e+00
200.029303	1854293.720125	9.707200e-07	1.800000e+00
201.054907	1852137.675567	9.718500e-07	1.800000e+00
202.079247	1858793.642926	9.683700e-07	1.800000e+00
203.103269	1862640.603496	9.663700e-07	1.800000e+00
204.129323	1848390.873057	9.738200e-07	1.800000e+00
205.152387	1840058.064054	9.782300e-07	1.800000e+00
206.176363	1827782.290820	9.848000e-07	1.800000e+00
207.201157	1819965.016228	9.890300e-07	1.800000e+00
208.226293	1813218.361858	9.927100e-07	1.800000e+00
209.250932	1807337.791433	9.959400e-07	1.800000e+00
210.275117	1800450.112528	9.997500e-07	1.800000e+00
211.301397	1801441.152922	9.992000e-07	1.800000e+00
212.325868	1796945.193172	1.001700e-06	1.800000e+00
213.350278	1793543.244320	1.003600e-06	1.800000e+00
214.374012	1786777.843955	1.007400e-06	1.800000e+00
215.397349	1783767.713804	1.009100e-06	1.800000e+00
216.421517	1782001.782002	1.010100e-06	1.800000e+00
217.445309	1777953.378111	1.012400e-06	1.800000e+00
218.469378	1772875.012312	1.015300e-06	1.800000e+00
219.493445	1770433.756270	1.016700e-06	1.800000e+00
220.518262	1769215.647730	1.017400e-06	1.800000e+00
221.542810	1770433.756270	1.016700e-06	1.800000e+00
222.566289	1765051.970975	1.019800e-06	1.800000e+00
223.590260	1764878.909697	1.019900e-06	1.800000e+00
224.616571	1762459.610301	1.021300e-06	1.800000e+00
225.641054	1760391.198044	1.022500e-06	1.800000e+00
226.665334	1760563.380282	1.022400e-06	1.800000e+00
227.689277	1759702.805748	1.022900e-06	1.800000e+00
228.713720	1754556.974364	1.025900e-06	1.800000e+00
229.740493	1746724.890830	1.030500e-06	1.800000e+00
230.765524	1741823.108187	1.033400e-06	1.800000e+00
231.791057	1737619.461338	1.035900e-06	1.800000e+00
232.815729	1734271.124386	1.037900e-06	1.800000e+00
233.840033	1730769.230769	1.040000e-06	1.800000e+00
234.864090	1727944.705769	1.041700e-06	1.800000e+00
235.888186	1724303.094166	1.043900e-06	1.800000e+00
236.911956	1721664.275466	1.045500e-06	1.800000e+00
237.935887	1718869.365928	1.047200e-06	1.800000e+00
238.960421	1718213.058419	1.047600e-06	1.800000e+00
239.984381	1720347.892574	1.046300e-06	1.800000e+00
241.008542	1720019.111323	1.046500e-06	1.800000e+00
242.033116	1718541.149513	1.047400e-06	1.800000e+00
243.057964	1721170.395869	1.045800e-06	1.800000e+00
244.081995	1715919.923737	1.049000e-06	1.800000e+00
245.107010	1715265.866209	1.049400e-06	1.800000e+00
246.131732	1709401.709402	1.053000e-06	1.800000e+00
247.158165	1708590.412909	1.053500e-06	1.800000e+00
248.182270	1705514.496873	1.055400e-06	1.800000e+00
249.206191	1700680.272109	1.058400e-06	1.800000e+00
250.232417	1696192.989069	1.061200e-06	1.800000e+00
251.257143	1696352.841391	1.061100e-06	1.800000e+00
252.281293	1692843.035832	1.063300e-06	1.800000e+00
253.305057	1690775.878264	1.064600e-06	1.800000e+00
254.329380	1685866.816521	1.067700e-06	1.800000e+00
255.354030	1686024.728363	1.067600e-06	1.800000e+00
256.379084	1683974.179063	1.068900e-06	1.800000e+00
257.402412	1682714.779845	1.069700e-06	1.800000e+00
258.427227	1683344.243898	1.069300e-06	1.800000e+00
259.451343	1678947.859341	1.072100e-06	1.800000e+00
260.476073	1673795.796913	1.075400e-06	1.800000e+00
261.500300	1669758.812616	1.078000e-06	1.800000e+00
262.524244	1666821.001945	1.079900e-06	1.800000e+00
263.548556	1665741.254858	1.080600e-06	1.800000e+00
264.572209	1663585.951941	1.082000e-06	1.800000e+00
265.596192	1662663.957140	1.082600e-06	1.800000e+00
266.620195	1662510.390690	1.082700e-06	1.800000e+00
267.645103	1661129.568106	1.083600e-06	1.800000e+00
268.669292	1658527.596056	1.085300e-06	1.800000e+00
269.692914	1661129.568106	1.083600e-06	1.800000e+00
270.716683	1658222.017503	1.085500e-06	1.800000e+00
271.740493	1656238.498344	1.086800e-06	1.800000e+00
272.768190	1652740.795152	1.089100e-06	1.800000e+00
273.792287	1647898.928866	1.092300e-06	1.800000e+00
274.817041	1647597.254005	1.092500e-06	1.800000e+00
275.843302	1646241.082861	1.093400e-06	1.800000e+00
276.868008	1641287.498860	1.096700e-06	1.800000e+00
277.892458	1637852.593267	1.099000e-06	1.800000e+00
278.916385	1633393.829401	1.102000e-06	1.800000e+00
279.940281	1629549.158066	1.104600e-06	1.800000e+00
280.964453	1627633.601591	1.105900e-06	1.800000e+00
281.989000	1624548.736462	1.108000e-06	1.800000e+00
283.013702	1623083.859333	1.109000e-06	1.800000e+00
284.037396	1620307.858493	1.110900e-06	1.800000e+00
285.061631	1618559.482061	1.112100e-06	1.800000e+00
286.085401	1617832.104979	1.112600e-06	1.800000e+00
287.109330	1620162.016202	1.111000e-06	1.800000e+00
288.132432	1620307.858493	1.110900e-06	1.800000e+00
289.157189	1624695.369618	1.107900e-06	1.800000e+00
290.182209	1622060.016221	1.109700e-06	1.800000e+00
291.207519	1622937.516906	1.109100e-06	1.800000e+00
292.232492	1620453.727044	1.110800e-06	1.800000e+00
293.256919	1617977.528090	1.112500e-06	1.800000e+00
294.281427	1613192.328374	1.115800e-06	1.800000e+00
295.305477	1607717.041801	1.119600e-06	1.800000e+00
296.331476	1606282.348742	1.120600e-06	1.800000e+00
297.356407	1605709.188225	1.121000e-06	1.800000e+00
298.381803	1600569.091232	1.124600e-06	1.800000e+00
299.406332	1597018.898057	1.127100e-06	1.800000e+00
300.429594	1593061.332861	1.129900e-06	1.800000e+00
301.454119	1589684.712532	1.132300e-06	1.800000e+00
302.478130	1589403.973510	1.132500e-06	1.800000e+00
303.502455	1589123.333628	1.132700e-06	1.800000e+00
304.526251	1588983.050847	1.132800e-06	1.800000e+00
305.550742	1588001.764446	1.133500e-06	1.800000e+00
306.575182	1586881.777308	1.134300e-06	1.800000e+00
307.598627	1584925.596548	1.135700e-06	1.800000e+00
308.622523	1584507.042254	1.136000e-06	1.800000e+00
309.646543	1580194.890703	1.139100e-06	1.800000e+00
310.671128	1579640.193067	1.139500e-06	1.800000e+00
311.696494	1582417.582418	1.137500e-06	1.800000e+00
312.720242	1582278.481013	1.137600e-06	1.800000e+00
313.743765	1581583.340655	1.138100e-06	1.800000e+00
314.770085	1577701.814357	1.140900e-06	1.800000e+00
315.798968	1572464.401153	1.144700e-06	1.800000e+00
316.824290	1571091.908877	1.145700e-06	1.800000e+00
317.848295	1568627.450980	1.147500e-06	1.800000e+00
318.871599	1566170.712608	1.149300e-06	1.800000e+00
319.896049	1563178.462875	1.151500e-06	1.800000e+00
320.920585	1560197.625033	1.153700e-06	1.800000e+00
321.944426	1557362.865548	1.155800e-06	1.800000e+00
322.968498	1552527.169225	1.159400e-06	1.800000e+00
323.993142	1549320.020658	1.161800e-06	1.800000e+00
325.017450	1548786.783686	1.162200e-06	1.800000e+00
326.057455	1547056.295660	1.163500e-06	1.800000e+00
327.082207	1546923.341354	1.163600e-06	1.800000e+00
328.105656	1544799.176107	1.165200e-06	1.800000e+00
329.129603	1543209.876543	1.166400e-06	1.800000e+00
330.154073	1543077.582512	1.166500e-06	1.800000e+00
331.178654	1545329.670330	1.164800e-06	1.800000e+00
332.202183	1543077.582512	1.166500e-06	1.800000e+00
333.226306	1544269.045985	1.165600e-06	1.800000e+00
334.251116	1543606.894777	1.166100e-06	1.800000e+00
335.275529	1540436.456996	1.168500e-06	1.800000e+00
336.300442	1539645.881447	1.169100e-06	1.800000e+00
337.324614	1535443.145952	1.172300e-06	1.800000e+00
338.349696	1532175.689479	1.174800e-06	1.800000e+00
339.375592	1531654.186521	1.175200e-06	1.800000e+00
340.400659	1531002.806838	1.175700e-06	1.800000e+00
341.425449	1530351.980956	1.176200e-06	1.800000e+00
342.450673	1528273.051452	1.177800e-06	1.800000e+00
343.475038	1524519.352926	1.180700e-06	1.800000e+00
344.499500	1521683.996957	1.182900e-06	1.800000e+00
345.524671	1518859.168003	1.185100e-06	1.800000e+00
346.548771	1518346.689161	1.185500e-06	1.800000e+00
347.572792	1517962.556924	1.185800e-06	1.800000e+00
348.597368	1513368.084749	1.189400e-06	1.800000e+00
349.621788	1510447.260216	1.191700e-06	1.800000e+00
350.645707	1509560.550151	1.192400e-06	1.800000e+00
351.671365	1509687.159272	1.192300e-06	1.800000e+00
352.695973	1510827.597784	1.191400e-06	1.800000e+00
353.719551	1509307.395606	1.192600e-06	1.800000e+00
354.743664	1507537.688442	1.194000e-06	1.800000e+00
355.772646	1507285.211857	1.194200e-06	1.800000e+00
356.800372	1508295.625943	1.193400e-06	1.800000e+00
357.829554	1507663.958455	1.193900e-06	1.800000e+00
358.853918	1505520.240883	1.195600e-06	1.800000e+00
359.884373	1505268.439538	1.195800e-06	1.800000e+00
360.911032	1505898.100895	1.195300e-06	1.800000e+00
361.935860	1503257.056957	1.197400e-06	1.800000e+00
362.960258	1501501.501502	1.198800e-06	1.800000e+00
363.984394	1498127.340824	1.201500e-06	1.800000e+00
365.008419	1495264.994185	1.203800e-06	1.800000e+00
366.031681	1493651.979089	1.205100e-06	1.800000e+00
367.055542	1492166.127829	1.206300e-06	1.800000e+00
368.078776	1490806.692066	1.207400e-06	1.800000e+00
369.102643	1489449.731072	1.208500e-06	1.800000e+00
370.126973	1485516.216885	1.211700e-06	1.800000e+00
371.151085	1484536.082474	1.212500e-06	1.800000e+00
372.175872	1483434.976100	1.213400e-06	1.800000e+00
373.199623	1484168.865435	1.212800e-06	1.800000e+00
374.224057	1484168.865435	1.212800e-06	1.800000e+00
375.247792	1483679.525223	1.213200e-06	1.800000e+00
376.271832	1485393.629312	1.211800e-06	1.800000e+00
377.295681	1483190.507581	1.213600e-06	1.800000e+00
378.319836	1481969.372633	1.214600e-06	1.800000e+00
379.344095	1480750.246792	1.215600e-06	1.800000e+00
380.368626	1479776.389346	1.216400e-06	1.800000e+00
381.392768	1477226.097661	1.218500e-06	1.800000e+00
382.416836	1477832.512315	1.218000e-06	1.800000e+00
383.441461	1480263.157895	1.216000e-06	1.800000e+00
384.465510	1485516.216885	1.211700e-06	1.800000e+00
385.489396	1480141.435737	1.216100e-06	1.800000e+00
386.512895	1478318.002628	1.217600e-06	1.800000e+00
387.536884	1475893.735651	1.219600e-06	1.800000e+00
388.560550	1472272.206772	1.222600e-06	1.800000e+00
389.583947	1469267.814872	1.225100e-06	1.800000e+00
390.607983	1466634.074798	1.227300e-06	1.800000e+00
391.632487	1464247.945986	1.229300e-06	1.800000e+00
392.656667	1462938.881664	1.230400e-06	1.800000e+00
393.680943	1461750.852688	1.231400e-06	1.800000e+00
394.705223	1460090.850097	1.232800e-06	1.800000e+00
395.731463	1459025.695064	1.233700e-06	1.800000e+00
