SourceV	Current	Voltage
1.31631E7	7.597E-7	10
1.18301E7	8.453E-7	10
1.058E7	9.4518E-7	10
9.60061E6	1.0416E-6	10
8.8269E6	1.1329E-6	10
8.19874E6	1.2197E-6	10
7.65873E6	1.3057E-6	10
7.21553E6	1.3859E-6	10
6.82827E6	1.4645E-6	10
6.47249E6	1.545E-6	10
6.16675E6	1.6216E-6	10
5.88824E6	1.6983E-6	10
5.65579E6	1.7681E-6	10
5.43124E6	1.8412E-6	10
5.22575E6	1.9136E-6	10
5.05561E6	1.978E-6	10
4.92587E6	2.0301E-6	10
4.80238E6	2.0823E-6	10
4.69043E6	2.132E-6	10
4.59855E6	2.1746E-6	10
4.5104E6	2.2171E-6	10
4.42576E6	2.2595E-6	10
4.35426E6	2.2966E-6	10
4.29221E6	2.3298E-6	10
4.23531E6	2.3611E-6	10
4.182E6	2.3912E-6	10
4.15369E6	2.4075E-6	10
4.13104E6	2.4207E-6	10
4.10509E6	2.436E-6	10
4.06736E6	2.4586E-6	10
4.04171E6	2.4742E-6	10
4.00834E6	2.4948E-6	10
3.98438E6	2.5098E-6	10
3.96558E6	2.5217E-6	10
3.9507E6	2.5312E-6	10
3.92742E6	2.5462E-6	10
3.90823E6	2.5587E-6	10
3.89985E6	2.5642E-6	10
3.8841E6	2.5746E-6	10
3.86518E6	2.5872E-6	10
3.8466E6	2.5997E-6	10
3.81986E6	2.6179E-6	10
3.78845E6	2.6396E-6	10
3.75827E6	2.6608E-6	10
3.72745E6	2.6828E-6	10
3.70576E6	2.6985E-6	10
3.67958E6	2.7177E-6	10
3.65404E6	2.7367E-6	10
3.63042E6	2.7545E-6	10
3.60959E6	2.7704E-6	10
3.59764E6	2.7796E-6	10
3.57987E6	2.7934E-6	10
3.56366E6	2.8061E-6	10
3.53732E6	2.827E-6	10
3.51407E6	2.8457E-6	10
3.49748E6	2.8592E-6	10
3.46945E6	2.8823E-6	10
3.44056E6	2.9065E-6	10
3.40901E6	2.9334E-6	10
3.37564E6	2.9624E-6	10
3.34158E6	2.9926E-6	10
3.3083E6	3.0227E-6	10
3.28299E6	3.046E-6	10
3.25669E6	3.0706E-6	10
3.23373E6	3.0924E-6	10
3.21461E6	3.1108E-6	10
3.1836E6	3.1411E-6	10
3.17168E6	3.1529E-6	10
3.17854E6	3.1461E-6	10
3.16787E6	3.1567E-6	10
3.13913E6	3.1856E-6	10
3.111E6	3.2144E-6	10
3.07948E6	3.2473E-6	10
3.05018E6	3.2785E-6	10
3.02234E6	3.3087E-6	10
3.00129E6	3.3319E-6	10
2.99868E6	3.3348E-6	10
2.96112E6	3.3771E-6	10
2.93367E6	3.4087E-6	10
2.91231E6	3.4337E-6	10
2.889E6	3.4614E-6	10
2.8641E6	3.4915E-6	10
2.84051E6	3.5205E-6	10
2.81928E6	3.547E-6	10
2.80796E6	3.5613E-6	10
2.7965E6	3.5759E-6	10
2.7767E6	3.6014E-6	10
2.74854E6	3.6383E-6	10
2.71902E6	3.6778E-6	10
2.69724E6	3.7075E-6	10
2.67487E6	3.7385E-6	10
2.65083E6	3.7724E-6	10
2.62729E6	3.8062E-6	10
2.61124E6	3.8296E-6	10
2.59498E6	3.8536E-6	10
2.58859E6	3.8631E-6	10
2.5672E6	3.8953E-6	10
2.55271E6	3.9174E-6	10
2.5364E6	3.9426E-6	10
2.51623E6	3.9742E-6	10
2.498E6	4.0032E-6	10
2.48688E6	4.0211E-6	10
2.46889E6	4.0504E-6	10
2.45381E6	4.0753E-6	10
2.43339E6	4.1095E-6	10
2.40796E6	4.1529E-6	10
2.38852E6	4.1867E-6	10
2.37203E6	4.2158E-6	10
2.35705E6	4.2426E-6	10
2.34538E6	4.2637E-6	10
2.3376E6	4.2779E-6	10
2.32164E6	4.3073E-6	10
2.30303E6	4.3421E-6	10
2.30044E6	4.347E-6	10
2.28352E6	4.3792E-6	10
2.27113E6	4.4031E-6	10
2.25688E6	4.4309E-6	10
2.24568E6	4.453E-6	10
2.2303E6	4.4837E-6	10
2.21646E6	4.5117E-6	10
2.20541E6	4.5343E-6	10
2.1925E6	4.561E-6	10
2.18283E6	4.5812E-6	10
2.17424E6	4.5993E-6	10
2.1624E6	4.6245E-6	10
2.14804E6	4.6554E-6	10
2.13156E6	4.6914E-6	10
2.11229E6	4.7342E-6	10
2.09608E6	4.7708E-6	10
2.08082E6	4.8058E-6	10
2.06505E6	4.8425E-6	10
2.05322E6	4.8704E-6	10
2.04086E6	4.8999E-6	10
2.0293E6	4.9278E-6	10
2.02012E6	4.9502E-6	10
2.01442E6	4.9642E-6	10
2.01191E6	4.9704E-6	10
2.01357E6	4.9663E-6	10
2.003E6	4.9925E-6	10
1.99017E6	5.0247E-6	10
1.97219E6	5.0705E-6	10
1.95771E6	5.108E-6	10
1.94575E6	5.1394E-6	10
1.93125E6	5.178E-6	10
1.92263E6	5.2012E-6	10
1.91077E6	5.2335E-6	10
1.90114E6	5.26E-6	10
1.88893E6	5.294E-6	10
1.87755E6	5.3261E-6	10
1.8655E6	5.3605E-6	10
1.85777E6	5.3828E-6	10
1.85038E6	5.4043E-6	10
1.83932E6	5.4368E-6	10
1.83321E6	5.4549E-6	10
1.82802E6	5.4704E-6	10
1.82345E6	5.4841E-6	10
1.81699E6	5.5036E-6	10
1.8078E6	5.5316E-6	10
1.79966E6	5.5566E-6	10
1.79125E6	5.5827E-6	10
1.78066E6	5.6159E-6	10
1.76913E6	5.6525E-6	10
1.75775E6	5.6891E-6	10
1.74889E6	5.7179E-6	10
1.74095E6	5.744E-6	10
1.73539E6	5.7624E-6	10
1.7301E6	5.78E-6	10
1.72283E6	5.8044E-6	10
1.71532E6	5.8298E-6	10
1.70999E6	5.848E-6	10
1.70456E6	5.8666E-6	10
1.69423E6	5.9024E-6	10
1.68418E6	5.9376E-6	10
1.67381E6	5.9744E-6	10
1.6627E6	6.0143E-6	10
1.65717E6	6.0344E-6	10
1.65085E6	6.0575E-6	10
1.64341E6	6.0849E-6	10
1.64069E6	6.095E-6	10
1.635E6	6.1162E-6	10
1.62485E6	6.1544E-6	10
1.61802E6	6.1804E-6	10
1.60981E6	6.2119E-6	10
1.60008E6	6.2497E-6	10
1.59258E6	6.2791E-6	10
1.58529E6	6.308E-6	10
1.57925E6	6.3321E-6	10
1.57389E6	6.3537E-6	10
1.56836E6	6.3761E-6	10
1.56155E6	6.4039E-6	10
1.55424E6	6.434E-6	10
1.54947E6	6.4538E-6	10
1.54459E6	6.4742E-6	10
1.53979E6	6.4944E-6	10
1.53558E6	6.5122E-6	10
1.52849E6	6.5424E-6	10
1.52207E6	6.57E-6	10
1.51414E6	6.6044E-6	10
1.50614E6	6.6395E-6	10
1.49986E6	6.6673E-6	10
1.49528E6	6.6877E-6	10
1.49151E6	6.7046E-6	10
1.49249E6	6.7002E-6	10
1.48876E6	6.717E-6	10
1.48196E6	6.7478E-6	10
1.47802E6	6.7658E-6	10
1.47327E6	6.7876E-6	10
1.46744E6	6.8146E-6	10
1.46327E6	6.834E-6	10
1.46197E6	6.8401E-6	10
1.45163E6	6.8888E-6	10
1.4429E6	6.9305E-6	10
1.43544E6	6.9665E-6	10
1.42939E6	6.996E-6	10
1.42657E6	7.0098E-6	10
1.42302E6	7.0273E-6	10
1.41995E6	7.0425E-6	10
1.41133E6	7.0855E-6	10
1.40355E6	7.1248E-6	10
1.39567E6	7.165E-6	10
1.38872E6	7.2009E-6	10
1.38343E6	7.2284E-6	10
1.37707E6	7.2618E-6	10
1.36921E6	7.3035E-6	10
1.3624E6	7.34E-6	10
1.35717E6	7.3683E-6	10
1.34918E6	7.4119E-6	10
1.34666E6	7.4258E-6	10
1.34302E6	7.4459E-6	10
1.34075E6	7.4585E-6	10
1.33729E6	7.4778E-6	10
1.33535E6	7.4887E-6	10
1.3292E6	7.5233E-6	10
1.3245E6	7.55E-6	10
1.31893E6	7.5819E-6	10
1.31258E6	7.6186E-6	10
1.30673E6	7.6527E-6	10
1.30149E6	7.6835E-6	10
1.29623E6	7.7147E-6	10
1.29154E6	7.7427E-6	10
1.2851E6	7.7815E-6	10
1.27926E6	7.817E-6	10
1.27393E6	7.8497E-6	10
1.26912E6	7.8795E-6	10
1.26459E6	7.9077E-6	10
1.26162E6	7.9263E-6	10
1.25797E6	7.9493E-6	10
1.25395E6	7.9748E-6	10
1.24807E6	8.0124E-6	10
1.24208E6	8.051E-6	10
1.23723E6	8.0826E-6	10
1.23201E6	8.1168E-6	10
1.22779E6	8.1447E-6	10
1.22459E6	8.166E-6	10
1.21927E6	8.2016E-6	10
1.21552E6	8.2269E-6	10
1.21192E6	8.2514E-6	10
1.20909E6	8.2707E-6	10
1.20534E6	8.2964E-6	10
1.20257E6	8.3155E-6	10
1.20093E6	8.3269E-6	10
1.19706E6	8.3538E-6	10
1.19285E6	8.3833E-6	10
1.18883E6	8.4116E-6	10
1.18571E6	8.4338E-6	10
1.18226E6	8.4584E-6	10
1.17922E6	8.4802E-6	10
1.17445E6	8.5146E-6	10
1.17117E6	8.5385E-6	10
1.164E6	8.5911E-6	10
1.1562E6	8.649E-6	10
1.14972E6	8.6978E-6	10
1.14451E6	8.7374E-6	10
1.13928E6	8.7775E-6	10
1.13525E6	8.8086E-6	10
1.13089E6	8.8426E-6	10
1.12857E6	8.8608E-6	10
1.12592E6	8.8816E-6	10
1.12188E6	8.9136E-6	10
1.11677E6	8.9544E-6	10
1.11402E6	8.9765E-6	10
1.11136E6	8.998E-6	10
1.10808E6	9.0246E-6	10
1.10479E6	9.0515E-6	10
1.0996E6	9.0942E-6	10
1.0954E6	9.1291E-6	10
1.09408E6	9.1401E-6	10
1.09247E6	9.1536E-6	10
1.0894E6	9.1794E-6	10
1.08216E6	9.2408E-6	10
1.07706E6	9.2845E-6	10
1.0716E6	9.3318E-6	10
1.06621E6	9.379E-6	10
1.06311E6	9.4064E-6	10
1.0595E6	9.4384E-6	10
1.0574E6	9.4572E-6	10
1.05442E6	9.4839E-6	10
1.05078E6	9.5167E-6	10
1.04624E6	9.558E-6	10
1.04114E6	9.6049E-6	10
1.03823E6	9.6318E-6	10
1.03586E6	9.6538E-6	10
1.03403E6	9.6709E-6	10
1.03118E6	9.6976E-6	10
1.02816E6	9.7261E-6	10
1.02647E6	9.7421E-6	10
1.02254E6	9.7796E-6	10
1.02107E6	9.7936E-6	10
1.01786E6	9.8245E-6	10
1.01512E6	9.8511E-6	10
1.01234E6	9.8781E-6	10
1.01017E6	9.8993E-6	10
1.00549E6	9.9454E-6	10
1.00039E6	9.9961E-6	10
997207.81811	1.0028E-5	10
991375.03718	1.0087E-5	10
986193.29389	1.014E-5	10
983187.49386	1.0171E-5	10
980584.42832	1.0198E-5	10
975229.17886	1.0254E-5	10
971817.29835	1.029E-5	10
967492.26006	1.0336E-5	10
964134.20748	1.0372E-5	10
961538.46154	1.04E-5	10
958037.9383	1.0438E-5	10
955018.62286	1.0471E-5	10
951022.34903	1.0515E-5	10
947328.53354	1.0556E-5	10
943752.35938	1.0596E-5	10
940026.32074	1.0638E-5	10
936943.68968	1.0673E-5	10
932748.81075	1.0721E-5	10
930232.55814	1.075E-5	10
928332.71445	1.0772E-5	10
926440.61516	1.0794E-5	10
924727.20547	1.0814E-5	10
921913.89324	1.0847E-5	10
918357.97594	1.0889E-5	10
913659.20512	1.0945E-5	10
909173.56123	1.0999E-5	10
905387.05297	1.1045E-5	10
900090.009	1.111E-5	10
896458.987	1.1155E-5	10
892777.43059	1.1201E-5	10
890392.66316	1.1231E-5	10
886839.30472	1.1276E-5	10
883470.27123	1.1319E-5	10
879120.87912	1.1375E-5	10
874967.18873	1.1429E-5	10
873286.17588	1.1451E-5	10
873286.17588	1.1451E-5	10
869716.47243	1.1498E-5	10
866551.12652	1.154E-5	10
866476.04194	1.1541E-5	10
862366.33322	1.1596E-5	10
858369.09871	1.165E-5	10
854700.8547	1.17E-5	10
850774.20453	1.1754E-5	10
845165.65247	1.1832E-5	10
841892.57451	1.1878E-5	10
838785.43868	1.1922E-5	10
835212.5616	1.1973E-5	10
831739.1666	1.2023E-5	10
829256.15723	1.2059E-5	10
826651.23584	1.2097E-5	10
823180.7705	1.2148E-5	10
820008.20008	1.2195E-5	10
817193.75664	1.2237E-5	10
815594.16035	1.2261E-5	10
814199.64175	1.2282E-5	10
814730.32426	1.2274E-5	10
814597.58879	1.2276E-5	10
807167.64872	1.2389E-5	10
801796.02309	1.2472E-5	10
796495.42015	1.2555E-5	10
792204.7057	1.2623E-5	10
787029.74973	1.2706E-5	10
783208.02005	1.2768E-5	10
779544.74587	1.2828E-5	10
775554.52148	1.2894E-5	10
772081.53181	1.2952E-5	10
769112.44424	1.3002E-5	10
766048.7207	1.3054E-5	10
762485.70339	1.3115E-5	10
759128.52046	1.3173E-5	10
756372.43779	1.3221E-5	10
751936.23581	1.3299E-5	10
749063.67041	1.335E-5	10
745712.15511	1.341E-5	10
742390.4974	1.347E-5	10
738606.98722	1.3539E-5	10
734645.90068	1.3612E-5	10
730246.82343	1.3694E-5	10
727378.52779	1.3748E-5	10
725268.34929	1.3788E-5	10
722230.247	1.3846E-5	10
719786.94307	1.3893E-5	10
716794.49502	1.3951E-5	10
713724.93041	1.4011E-5	10
710984.71383	1.4065E-5	10
708165.14411	1.4121E-5	10
705168.88795	1.4181E-5	10
702592.56657	1.4233E-5	10
699349.60487	1.4299E-5	10
696330.33911	1.4361E-5	10
693288.96284	1.4424E-5	10
688895.0124	1.4516E-5	10
685918.10138	1.4579E-5	10
683060.10929	1.464E-5	10
680179.56741	1.4702E-5	10
677414.98442	1.4762E-5	10
673718.25103	1.4843E-5	10
670196.36754	1.4921E-5	10
666400.10662	1.5006E-5	10
662163.95179	1.5102E-5	10
658935.16078	1.5176E-5	10
655780.70693	1.5249E-5	10
652613.71794	1.5323E-5	10
649013.49948	1.5408E-5	10
647920.17623	1.5434E-5	10
646495.99172	1.5468E-5	10
643128.17544	1.5549E-5	10
640163.88195	1.5621E-5	10
636820.98962	1.5703E-5	10
633834.06224	1.5777E-5	10
631233.43012	1.5842E-5	10
628219.62558	1.5918E-5	10
625078.13477	1.5998E-5	10
621581.30283	1.6088E-5	10
618085.17214	1.6179E-5	10
615081.80588	1.6258E-5	10
610985.51964	1.6367E-5	10
607570.32627	1.6459E-5	10
604156.59739	1.6552E-5	10
600636.67488	1.6649E-5	10
597657.18384	1.6732E-5	10
594671.7412	1.6816E-5	10
591051.48058	1.6919E-5	10
587751.26366	1.7014E-5	10
584932.14787	1.7096E-5	10
582038.29812	1.7181E-5	10
579676.54049	1.7251E-5	10
576003.68642	1.7361E-5	10
573460.2592	1.7438E-5	10
570450.65602	1.753E-5	10
567150.63521	1.7632E-5	10
564844.10303	1.7704E-5	10
562366.43797	1.7782E-5	10
559722.3777	1.7866E-5	10
558877.77343	1.7893E-5	10
556606.92419	1.7966E-5	10
553250.34578	1.8075E-5	10
551024.90633	1.8148E-5	10
548095.36859	1.8245E-5	10
543773.7901	1.839E-5	10
539374.32578	1.854E-5	10
536595.83602	1.8636E-5	10
533874.32598	1.8731E-5	10
529941.70641	1.887E-5	10
525651.80824	1.9024E-5	10
522848.47851	1.9126E-5	10
520237.22818	1.9222E-5	10
516608.97866	1.9357E-5	10
513267.97721	1.9483E-5	10
510438.46664	1.9591E-5	10
507073.6778	1.9721E-5	10
503575.38523	1.9858E-5	10
499750.12494	2.001E-5	10
496746.31166	2.0131E-5	10
493778.39226	2.0252E-5	10
490148.0247	2.0402E-5	10
486168.506	2.0569E-5	10
482113.58596	2.0742E-5	10
478743.77633	2.0888E-5	10
475285.1711	2.104E-5	10
471164.71919	2.1224E-5	10
467923.822	2.1371E-5	10
464338.78157	2.1536E-5	10
460511.1674	2.1715E-5	10
457686.85066	2.1849E-5	10
454628.1142	2.1996E-5	10
451222.81383	2.2162E-5	10
448812.88991	2.2281E-5	10
445097.25375	2.2467E-5	10
441969.41572	2.2626E-5	10
437866.71337	2.2838E-5	10
434499.23963	2.3015E-5	10
431034.48276	2.32E-5	10
427113.14227	2.3413E-5	10
422868.74154	2.3648E-5	10
419551.08034	2.3835E-5	10
415748.55527	2.4053E-5	10
412303.12526	2.4254E-5	10
408897.61204	2.4456E-5	10
405860.62746	2.4639E-5	10
402398.29383	2.4851E-5	10
398708.18548	2.5081E-5	10
394975.90647	2.5318E-5	10
390991.55458	2.5576E-5	10
386832.23086	2.5851E-5	10
382409.17782	2.615E-5	10
378802.22736	2.6399E-5	10
376038.80721	2.6593E-5	10
372079.17845	2.6876E-5	10
368337.692	2.7149E-5	10
364617.51623	2.7426E-5	10
362384.48994	2.7595E-5	10
359802.82805	2.7793E-5	10
357756.15341	2.7952E-5	10
356036.60056	2.8087E-5	10
353719.35906	2.8271E-5	10
351320.96684	2.8464E-5	10
348991.41481	2.8654E-5	10
346380.3256	2.887E-5	10
343796.19761	2.9087E-5	10
341227.05248	2.9306E-5	10
338352.22467	2.9555E-5	10
336145.7528	2.9749E-5	10
333878.66849	2.9951E-5	10
331510.02818	3.0165E-5	10
329218.107	3.0375E-5	10
326893.53078	3.0591E-5	10
324369.91145	3.0829E-5	10
322684.73701	3.099E-5	10
320893.36713	3.1163E-5	10
319458.19889	3.1303E-5	10
317591.38692	3.1487E-5	10
315686.46021	3.1677E-5	10
313971.74254	3.185E-5	10
311516.77518	3.2101E-5	10
309109.45566	3.2351E-5	10
306739.05708	3.2601E-5	10
304488.15541	3.2842E-5	10
302718.41133	3.3034E-5	10
300543.98461	3.3273E-5	10
297787.43933	3.3581E-5	10
295779.23038	3.3809E-5	10
293953.37899	3.4019E-5	10
292004.90568	3.4246E-5	10
289745.89285	3.4513E-5	10
287678.7204	3.4761E-5	10
285038.33766	3.5083E-5	10
282517.79862	3.5396E-5	10
281088.37419	3.5576E-5	10
279204.82466	3.5816E-5	10
276908.59247	3.6113E-5	10
275375.88809	3.6314E-5	10
274265.65371	3.6461E-5	10
273537.93971	3.6558E-5	10
271547.27638	3.6826E-5	10
269781.74657	3.7067E-5	10
267967.20081	3.7318E-5	10
266354.14447	3.7544E-5	10
264431.3404	3.7817E-5	10
262687.82179	3.8068E-5	10
261157.97446	3.8291E-5	10
259888.76761	3.8478E-5	10
258564.96445	3.8675E-5	10
257267.8158	3.887E-5	10
255708.69665	3.9107E-5	10
253961.80415	3.9376E-5	10
252219.53188	3.9648E-5	10
251004.01606	3.984E-5	10
249569.49263	4.0069E-5	10
247935.93335	4.0333E-5	10
246566.56064	4.0557E-5	10
245314.49318	4.0764E-5	10
244075.07749	4.0971E-5	10
242718.4466	4.12E-5	10
241785.34297	4.1359E-5	10
240946.43761	4.1503E-5	10
239928.98102	4.1679E-5	10
238674.87708	4.1898E-5	10
237710.37368	4.2068E-5	10
236412.20833	4.2299E-5	10
235089.45154	4.2537E-5	10
233803.27792	4.2771E-5	10
232899.36419	4.2937E-5	10
231744.33965	4.3151E-5	10
230648.58382	4.3356E-5	10
229668.58823	4.3541E-5	10
229084.57803	4.3652E-5	10
228305.28983	4.3801E-5	10
227174.62914	4.4019E-5	10
226060.22244	4.4236E-5	10
224638.33229	4.4516E-5	10
223603.59555	4.4722E-5	10
223049.9855	4.4833E-5	10
222128.43466	4.5019E-5	10
221101.97223	4.5228E-5	10
220055.8942	4.5443E-5	10
218866.27271	4.569E-5	10
217893.40655	4.5894E-5	10
216915.03438	4.6101E-5	10
215917.43317	4.6314E-5	10
215049.13873	4.6501E-5	10
213995.2921	4.673E-5	10
212960.79392	4.6957E-5	10
211913.79347	4.7189E-5	10
210899.27451	4.7416E-5	10
209920.85984	4.7637E-5	10
208925.28832	4.7864E-5	10
208029.95631	4.807E-5	10
207095.07735	4.8287E-5	10
206296.15877	4.8474E-5	10
205503.38053	4.8661E-5	10
204817.30297	4.8824E-5	10
203981.72324	4.9024E-5	10
203305.75152	4.9187E-5	10
202597.29735	4.9359E-5	10
201877.46038	4.9535E-5	10
200972.70791	4.9758E-5	10
200324.52573	4.9919E-5	10
199644.63255	5.0089E-5	10
199104.03186	5.0225E-5	10
198353.66458	5.0415E-5	10
197706.6034	5.058E-5	10
196873.64649	5.0794E-5	10
195974.68007	5.1027E-5	10
195247.67167	5.1217E-5	10
194401.24417	5.144E-5	10
193573.36431	5.166E-5	10
193009.20654	5.1811E-5	10
192340.98209	5.1991E-5	10
191578.22139	5.2198E-5	10
190705.03652	5.2437E-5	10
189828.9641	5.2679E-5	10
189050.21174	5.2896E-5	10
188263.64441	5.3117E-5	10
187494.14081	5.3335E-5	10
186755.31319	5.3546E-5	10
186060.35798	5.3746E-5	10
185322.46108	5.396E-5	10
184682.43855	5.4147E-5	10
184070.53583	5.4327E-5	10
183432.38682	5.4516E-5	10
182771.91892	5.4713E-5	10
182046.56751	5.4931E-5	10
181303.93792	5.5156E-5	10
180521.70774	5.5395E-5	10
179755.8915	5.5631E-5	10
179054.23553	5.5849E-5	10
178249.94207	5.6101E-5	10
177452.84191	5.6353E-5	10
176706.54344	5.6591E-5	10
175978.88253	5.6825E-5	10
175229.55071	5.7068E-5	10
174535.29976	5.7295E-5	10
173746.85084	5.7555E-5	10
173076.2574	5.7778E-5	10
172392.98705	5.8007E-5	10
171747.53113	5.8225E-5	10
171080.54472	5.8452E-5	10
170511.70563	5.8647E-5	10
170235.94702	5.8742E-5	10
169396.77807	5.9033E-5	10
168423.88924	5.9374E-5	10
167655.8361	5.9646E-5	10
166763.94564	5.9965E-5	10
166115.71621	6.0199E-5	10
165579.36219	6.0394E-5	10
165092.78214	6.0572E-5	10
164416.89548	6.0821E-5	10
163671.47861	6.1098E-5	10
162956.68611	6.1366E-5	10
162395.66079	6.1578E-5	10
161917.09845	6.176E-5	10
161402.26286	6.1957E-5	10
160794.97033	6.2191E-5	10
160102.46558	6.246E-5	10
159441.31762	6.2719E-5	10
158704.96746	6.301E-5	10
158115.26603	6.3245E-5	10
157671.50718	6.3423E-5	10
157114.1277	6.3648E-5	10
156568.02881	6.387E-5	10
156018.41017	6.4095E-5	10
155499.23028	6.4309E-5	10
154935.46938	6.4543E-5	10
154509.35554	6.4721E-5	10
154073.70886	6.4904E-5	10
153588.59758	6.5109E-5	10
153244.96207	6.5255E-5	10
152676.4176	6.5498E-5	10
152179.20623	6.5712E-5	10
151800.35218	6.5876E-5	10
151256.1826	6.6113E-5	10
150711.35761	6.6352E-5	10
150206.53398	6.6575E-5	10
149653.55203	6.6821E-5	10
148955.8197	6.7134E-5	10
148372.35526	6.7398E-5	10
147834.95705	6.7643E-5	10
147288.42018	6.7894E-5	10
146623.26618	6.8202E-5	10
145989.66393	6.8498E-5	10
145511.69186	6.8723E-5	10
145020.01276	6.8956E-5	10
144458.56928	6.9224E-5	10
144032.03272	6.9429E-5	10
143601.82087	6.9637E-5	10
143053.33028	6.9904E-5	10
142606.56275	7.0123E-5	10
142184.81182	7.0331E-5	10
141669.14588	7.0587E-5	10
141215.01398	7.0814E-5	10
140728.12733	7.1059E-5	10
140315.42909	7.1268E-5	10
139727.2524	7.1568E-5	10
139300.98764	7.1787E-5	10
138831.04262	7.203E-5	10
138440.87882	7.2233E-5	10
137925.32723	7.2503E-5	10
137421.15461	7.2769E-5	10
136980.67203	7.3003E-5	10
136513.18035	7.3253E-5	10
136039.61474	7.3508E-5	10
135486.66811	7.3808E-5	10
134858.12925	7.4152E-5	10
134314.72627	7.4452E-5	10
133798.95369	7.4739E-5	10
133358.22687	7.4986E-5	10
132975.18683	7.5202E-5	10
132555.67338	7.544E-5	10
132116.10363	7.5691E-5	10
131691.57832	7.5935E-5	10
131442.31654	7.6079E-5	10
131023.82013	7.6322E-5	10
130606.27433	7.6566E-5	10
130164.26731	7.6826E-5	10
129812.80993	7.7034E-5	10
129760.59171	7.7065E-5	10
129093.88999	7.7463E-5	10
128524.79243	7.7806E-5	10
128011.46983	7.8118E-5	10
127541.2596	7.8406E-5	10
127063.18852	7.8701E-5	10
126681.69956	7.8938E-5	10
126273.78683	7.9193E-5	10
125844.73277	7.9463E-5	10
125505.15826	7.9678E-5	10
125087.56129	7.9944E-5	10
124610.5919	8.025E-5	10
124195.83199	8.0518E-5	10
123825.20834	8.0759E-5	10
123449.1698	8.1005E-5	10
123076.92308	8.125E-5	10
122679.81794	8.1513E-5	10
122381.04562	8.1712E-5	10
121976.50733	8.1983E-5	10
121638.2236	8.2211E-5	10
121222.40675	8.2493E-5	10
120818.18072	8.2769E-5	10
120367.36119	8.3079E-5	10
119963.05138	8.3359E-5	10
119530.00801	8.3661E-5	10
119088.73302	8.3971E-5	10
118652.11201	8.428E-5	10
118238.25007	8.4575E-5	10
117913.4044	8.4808E-5	10
117601.40181	8.5033E-5	10
117227.79706	8.5304E-5	10
116851.09665	8.5579E-5	10
116517.52424	8.5824E-5	10
116088.73823	8.6141E-5	10
115748.77885	8.6394E-5	10
115400.15002	8.6655E-5	10
115060.23403	8.6911E-5	10
114698.62935	8.7185E-5	10
114294.85787	8.7493E-5	10
113827.8013	8.7852E-5	10
113481.61598	8.812E-5	10
113142.65025	8.8384E-5	10
112887.20311	8.8584E-5	10
112714.1569	8.872E-5	10
112378.49076	8.8985E-5	10
111886.86001	8.9376E-5	10
111459.11123	8.9719E-5	10
111092.59568	9.0015E-5	10
110748.10344	9.0295E-5	10
110355.78706	9.0616E-5	10
110065.48897	9.0855E-5	10
109789.97178	9.1083E-5	10
109501.43994	9.1323E-5	10
109194.14719	9.158E-5	10
108906.36231	9.1822E-5	10
108631.88998	9.2054E-5	10
108314.19783	9.2324E-5	10
107943.5671	9.2641E-5	10
107629.88236	9.2911E-5	10
107365.2566	9.314E-5	10
106982.76508	9.3473E-5	10
106593.89857	9.3814E-5	10
106324.1611	9.4052E-5	10
106161.62045	9.4196E-5	10
105951.2836	9.4383E-5	10
105634.54672	9.4666E-5	10
105228.82007	9.5031E-5	10
104838.28694	9.5385E-5	10
104485.56532	9.5707E-5	10
104109.18972	9.6053E-5	10
103842.15992	9.63E-5	10
103552.9	9.6569E-5	10
103233.26589	9.6868E-5	10
102988.73303	9.7098E-5	10
102852.08841	9.7227E-5	10
102524.14444	9.7538E-5	10
102271.44888	9.7779E-5	10
101970.06159	9.8068E-5	10
101676.64792	9.8351E-5	10
101364.36434	9.8654E-5	10
100951.97714	9.9057E-5	10
