Time	SourceV	Current	Voltage
1.025875	8056070.248933	7.447800e-08	6.000000e-01
2.099444	7298293.415723	8.221100e-08	6.000000e-01
3.124687	6906951.847034	8.686900e-08	6.000000e-01
4.150573	6650557.538407	9.021800e-08	6.000000e-01
5.177832	6479621.590099	9.259800e-08	6.000000e-01
6.208086	6343098.180588	9.459100e-08	6.000000e-01
7.234621	6230788.402426	9.629600e-08	6.000000e-01
8.260832	6139049.470507	9.773500e-08	6.000000e-01
9.285682	6065078.290052	9.892700e-08	6.000000e-01
10.318981	5898545.025560	1.017200e-07	6.000000e-01
11.345158	5949429.846306	1.008500e-07	6.000000e-01
12.370043	5885815.185403	1.019400e-07	6.000000e-01
13.395744	5851375.073142	1.025400e-07	6.000000e-01
14.423261	5795421.616923	1.035300e-07	6.000000e-01
15.447077	5755947.812740	1.042400e-07	6.000000e-01
16.472733	5719733.079123	1.049000e-07	6.000000e-01
17.506779	5686125.852919	1.055200e-07	6.000000e-01
18.531454	5645996.047803	1.062700e-07	6.000000e-01
19.555972	5613247.263542	1.068900e-07	6.000000e-01
20.579948	5582953.382339	1.074700e-07	6.000000e-01
21.603883	5546824.443006	1.081700e-07	6.000000e-01
22.629574	5522319.374137	1.086500e-07	6.000000e-01
23.655201	5488474.204171	1.093200e-07	6.000000e-01
24.679926	5458515.283843	1.099200e-07	6.000000e-01
25.704058	5425935.973956	1.105800e-07	6.000000e-01
26.730049	5403458.213256	1.110400e-07	6.000000e-01
27.754861	5379718.461401	1.115300e-07	6.000000e-01
28.779022	5347593.582888	1.122000e-07	6.000000e-01
29.803096	5327650.506127	1.126200e-07	6.000000e-01
30.828158	5305978.068624	1.130800e-07	6.000000e-01
31.856328	5285877.896221	1.135100e-07	6.000000e-01
32.883144	5266853.932584	1.139200e-07	6.000000e-01
33.906847	5263157.894737	1.140000e-07	6.000000e-01
34.930861	5271944.468852	1.138100e-07	6.000000e-01
35.956330	5274725.274725	1.137500e-07	6.000000e-01
36.982649	5265005.265005	1.139600e-07	6.000000e-01
38.006853	5256702.295427	1.141400e-07	6.000000e-01
39.030728	5252560.623304	1.142300e-07	6.000000e-01
40.055896	5247966.413015	1.143300e-07	6.000000e-01
41.083196	5255781.359495	1.141600e-07	6.000000e-01
42.110628	5253480.430785	1.142100e-07	6.000000e-01
43.137168	5200208.008320	1.153800e-07	6.000000e-01
44.162207	5175090.564085	1.159400e-07	6.000000e-01
45.186704	5125576.627371	1.170600e-07	6.000000e-01
46.212933	5089921.954530	1.178800e-07	6.000000e-01
47.238033	5080010.160020	1.181100e-07	6.000000e-01
48.262798	5049229.992426	1.188300e-07	6.000000e-01
49.287845	5031446.540881	1.192500e-07	6.000000e-01
50.312850	5030181.086519	1.192800e-07	6.000000e-01
51.336627	5011275.369582	1.197300e-07	6.000000e-01
52.365942	4984216.647284	1.203800e-07	6.000000e-01
53.390114	4967298.617435	1.207900e-07	6.000000e-01
54.414068	4940304.652120	1.214500e-07	6.000000e-01
55.437923	4924895.345974	1.218300e-07	6.000000e-01
56.461900	4905968.928863	1.223000e-07	6.000000e-01
57.485956	4893564.962075	1.226100e-07	6.000000e-01
58.509960	4859480.035636	1.234700e-07	6.000000e-01
59.535153	4841442.749939	1.239300e-07	6.000000e-01
60.560104	4807692.307692	1.248000e-07	6.000000e-01
61.582168	4798080.767693	1.250500e-07	6.000000e-01
62.606356	4771751.232702	1.257400e-07	6.000000e-01
63.630937	4763038.818766	1.259700e-07	6.000000e-01
64.656092	4742333.227948	1.265200e-07	6.000000e-01
65.681005	4728877.679697	1.268800e-07	6.000000e-01
66.705279	4722178.498347	1.270600e-07	6.000000e-01
67.729247	4725153.567491	1.269800e-07	6.000000e-01
68.753218	4718836.020448	1.271500e-07	6.000000e-01
69.777355	4710685.404726	1.273700e-07	6.000000e-01
70.801224	4711055.276382	1.273600e-07	6.000000e-01
71.825362	4701457.451810	1.276200e-07	6.000000e-01
72.850387	4680187.207488	1.282000e-07	6.000000e-01
73.874984	4672897.196262	1.284000e-07	6.000000e-01
74.898366	4651884.013025	1.289800e-07	6.000000e-01
75.922260	4640371.229698	1.293000e-07	6.000000e-01
76.947113	4627487.274410	1.296600e-07	6.000000e-01
77.974495	4616449.949988	1.299700e-07	6.000000e-01
78.999327	4618582.095297	1.299100e-07	6.000000e-01
80.023516	4607233.356370	1.302300e-07	6.000000e-01
81.048024	4597348.862156	1.305100e-07	6.000000e-01
82.073545	4600168.672851	1.304300e-07	6.000000e-01
83.098119	4608648.897765	1.301900e-07	6.000000e-01
84.122345	4566210.045662	1.314000e-07	6.000000e-01
85.147533	4556500.607533	1.316800e-07	6.000000e-01
86.172701	4531722.054381	1.324000e-07	6.000000e-01
87.196307	4527960.153951	1.325100e-07	6.000000e-01
88.219504	4500112.502813	1.333300e-07	6.000000e-01
89.243647	4489337.822671	1.336500e-07	6.000000e-01
90.267330	4472938.720740	1.341400e-07	6.000000e-01
91.293009	4455997.029335	1.346500e-07	6.000000e-01
92.318054	4434589.800443	1.353000e-07	6.000000e-01
93.341649	4430333.013365	1.354300e-07	6.000000e-01
94.367554	4424452.474006	1.356100e-07	6.000000e-01
95.392353	4404639.553663	1.362200e-07	6.000000e-01
96.416435	4387889.425186	1.367400e-07	6.000000e-01
97.441340	4373815.424989	1.371800e-07	6.000000e-01
98.466085	4360148.245040	1.376100e-07	6.000000e-01
99.490960	4352557.127312	1.378500e-07	6.000000e-01
100.515254	4335260.115607	1.384000e-07	6.000000e-01
101.540176	4335573.379579	1.383900e-07	6.000000e-01
102.565272	4325883.201154	1.387000e-07	6.000000e-01
103.590602	4314994.606257	1.390500e-07	6.000000e-01
104.617596	4303851.947493	1.394100e-07	6.000000e-01
105.642024	4288471.160031	1.399100e-07	6.000000e-01
106.665223	4269247.189412	1.405400e-07	6.000000e-01
107.690112	4265908.282972	1.406500e-07	6.000000e-01
108.716091	4254112.308565	1.410400e-07	6.000000e-01
109.740662	4238784.881667	1.415500e-07	6.000000e-01
110.765027	4221190.375686	1.421400e-07	6.000000e-01
111.790232	4213187.276174	1.424100e-07	6.000000e-01
112.815862	4212595.661026	1.424300e-07	6.000000e-01
113.839474	4218815.918999	1.422200e-07	6.000000e-01
114.863045	4222081.486173	1.421100e-07	6.000000e-01
115.886549	4227138.227420	1.419400e-07	6.000000e-01
116.911055	4206983.592764	1.426200e-07	6.000000e-01
117.938164	4184392.217030	1.433900e-07	6.000000e-01
118.962489	4159733.777038	1.442400e-07	6.000000e-01
119.986466	4160310.636528	1.442200e-07	6.000000e-01
121.012196	4147656.574036	1.446600e-07	6.000000e-01
122.036783	4135079.255686	1.451000e-07	6.000000e-01
123.061545	4126547.455296	1.454000e-07	6.000000e-01
124.085390	4114944.105343	1.458100e-07	6.000000e-01
125.109197	4104809.468427	1.461700e-07	6.000000e-01
126.137812	4088864.658580	1.467400e-07	6.000000e-01
127.170490	4079135.223333	1.470900e-07	6.000000e-01
128.194491	4066969.429946	1.475300e-07	6.000000e-01
129.218435	4056520.857278	1.479100e-07	6.000000e-01
130.242526	4049676.025918	1.481600e-07	6.000000e-01
131.267967	4024954.719259	1.490700e-07	6.000000e-01
132.292768	4012572.727881	1.495300e-07	6.000000e-01
133.318097	4008551.576697	1.496800e-07	6.000000e-01
134.342018	4002401.440865	1.499100e-07	6.000000e-01
135.366887	3980627.612287	1.507300e-07	6.000000e-01
136.391640	3970354.685019	1.511200e-07	6.000000e-01
137.415982	3949447.077409	1.519200e-07	6.000000e-01
138.439501	3933136.676500	1.525500e-07	6.000000e-01
139.462615	3917471.924785	1.531600e-07	6.000000e-01
140.487257	3904978.848031	1.536500e-07	6.000000e-01
141.511586	3881234.232486	1.545900e-07	6.000000e-01
142.535390	3878474.466710	1.547000e-07	6.000000e-01
143.560112	3866477.638871	1.551800e-07	6.000000e-01
144.583989	3864734.299517	1.552500e-07	6.000000e-01
145.608183	3873966.942149	1.548800e-07	6.000000e-01
146.631688	3863490.019317	1.553000e-07	6.000000e-01
147.655568	3847633.705271	1.559400e-07	6.000000e-01
148.681239	3846893.633391	1.559700e-07	6.000000e-01
149.705672	3831172.977460	1.566100e-07	6.000000e-01
150.729559	3826774.666752	1.567900e-07	6.000000e-01
151.753654	3815095.059452	1.572700e-07	6.000000e-01
152.777671	3804209.992392	1.577200e-07	6.000000e-01
153.803284	3790750.568613	1.582800e-07	6.000000e-01
154.827333	3778575.477045	1.587900e-07	6.000000e-01
155.852040	3756103.668461	1.597400e-07	6.000000e-01
156.877374	3739715.781601	1.604400e-07	6.000000e-01
157.901359	3723239.218120	1.611500e-07	6.000000e-01
158.925153	3712641.544459	1.616100e-07	6.000000e-01
159.949421	3698452.813906	1.622300e-07	6.000000e-01
160.973479	3687995.574405	1.626900e-07	6.000000e-01
162.000095	3674219.228414	1.633000e-07	6.000000e-01
163.026775	3667705.849991	1.635900e-07	6.000000e-01
164.050525	3652745.647145	1.642600e-07	6.000000e-01
165.079513	3654525.520770	1.641800e-07	6.000000e-01
166.105586	3649857.047266	1.643900e-07	6.000000e-01
167.130574	3643650.938240	1.646700e-07	6.000000e-01
168.154520	3643208.452244	1.646900e-07	6.000000e-01
169.178556	3631301.821703	1.652300e-07	6.000000e-01
170.202766	3622969.627438	1.656100e-07	6.000000e-01
171.228591	3618381.377397	1.658200e-07	6.000000e-01
172.256383	3613369.467028	1.660500e-07	6.000000e-01
173.280733	3602521.765236	1.665500e-07	6.000000e-01
174.304530	3592814.371257	1.670000e-07	6.000000e-01
175.330767	3580593.184938	1.675700e-07	6.000000e-01
176.355862	3575685.339690	1.678000e-07	6.000000e-01
177.380702	3565062.388592	1.683000e-07	6.000000e-01
178.405582	3554081.269992	1.688200e-07	6.000000e-01
179.429637	3540240.736370	1.694800e-07	6.000000e-01
180.453837	3531073.446328	1.699200e-07	6.000000e-01
181.477670	3522573.827276	1.703300e-07	6.000000e-01
182.501731	3518029.903254	1.705500e-07	6.000000e-01
183.525687	3505491.937369	1.711600e-07	6.000000e-01
184.549684	3502218.071445	1.713200e-07	6.000000e-01
185.575683	3498134.328358	1.715200e-07	6.000000e-01
186.599748	3491416.933372	1.718500e-07	6.000000e-01
187.623769	3478865.889720	1.724700e-07	6.000000e-01
188.647924	3474635.163308	1.726800e-07	6.000000e-01
189.672340	3471619.510502	1.728300e-07	6.000000e-01
190.696625	3475238.922676	1.726500e-07	6.000000e-01
191.720454	3469812.630118	1.729200e-07	6.000000e-01
192.741751	3464003.233070	1.732100e-07	6.000000e-01
193.765463	3447879.554074	1.740200e-07	6.000000e-01
194.789494	3436032.527775	1.746200e-07	6.000000e-01
195.813446	3431120.260765	1.748700e-07	6.000000e-01
196.837651	3420557.550881	1.754100e-07	6.000000e-01
197.862344	3412775.154997	1.758100e-07	6.000000e-01
198.886579	3415300.546448	1.756800e-07	6.000000e-01
199.910613	3427200.548352	1.750700e-07	6.000000e-01
200.934853	3418803.418803	1.755000e-07	6.000000e-01
201.959636	3411222.923418	1.758900e-07	6.000000e-01
202.984387	3406961.558117	1.761100e-07	6.000000e-01
204.008627	3407929.115074	1.760600e-07	6.000000e-01
205.032985	3407348.514964	1.760900e-07	6.000000e-01
206.058261	3409478.349812	1.759800e-07	6.000000e-01
207.082469	3395777.916124	1.766900e-07	6.000000e-01
208.106535	3379520.108145	1.775400e-07	6.000000e-01
209.130668	3358710.255262	1.786400e-07	6.000000e-01
210.154607	3353454.057679	1.789200e-07	6.000000e-01
211.178535	3343363.423604	1.794600e-07	6.000000e-01
212.202597	3336484.457543	1.798300e-07	6.000000e-01
213.226488	3330003.330003	1.801800e-07	6.000000e-01
214.251541	3330373.001776	1.801600e-07	6.000000e-01
215.276715	3319134.812192	1.807700e-07	6.000000e-01
216.301387	3303237.172429	1.816400e-07	6.000000e-01
217.325739	3289293.350145	1.824100e-07	6.000000e-01
218.350667	3279046.890371	1.829800e-07	6.000000e-01
219.375443	3269754.768392	1.835000e-07	6.000000e-01
220.398931	3265306.122449	1.837500e-07	6.000000e-01
221.422613	3253443.227416	1.844200e-07	6.000000e-01
222.447506	3245523.881647	1.848700e-07	6.000000e-01
223.471666	3229800.290682	1.857700e-07	6.000000e-01
224.495820	3228410.008071	1.858500e-07	6.000000e-01
225.520371	3215434.083601	1.866000e-07	6.000000e-01
226.543815	3215434.083601	1.866000e-07	6.000000e-01
227.567782	3201195.112842	1.874300e-07	6.000000e-01
228.591765	3198464.736926	1.875900e-07	6.000000e-01
229.615572	3185558.800106	1.883500e-07	6.000000e-01
230.640510	3183868.400106	1.884500e-07	6.000000e-01
231.664693	3175947.491001	1.889200e-07	6.000000e-01
232.688628	3173595.683910	1.890600e-07	6.000000e-01
233.712814	3163889.474794	1.896400e-07	6.000000e-01
234.737010	3163555.836761	1.896600e-07	6.000000e-01
235.762451	3169069.877991	1.893300e-07	6.000000e-01
236.785863	3169237.270230	1.893200e-07	6.000000e-01
237.809805	3157063.930545	1.900500e-07	6.000000e-01
238.833946	3148284.185119	1.905800e-07	6.000000e-01
239.858903	3137418.950010	1.912400e-07	6.000000e-01
240.882520	3130707.018002	1.916500e-07	6.000000e-01
241.906785	3126139.738446	1.919300e-07	6.000000e-01
242.930685	3122885.546245	1.921300e-07	6.000000e-01
243.954594	3109936.246307	1.929300e-07	6.000000e-01
244.975956	3105429.325604	1.932100e-07	6.000000e-01
246.000767	3099974.166882	1.935500e-07	6.000000e-01
247.025532	3090553.209024	1.941400e-07	6.000000e-01
248.049832	3082772.440014	1.946300e-07	6.000000e-01
249.074856	3071253.071253	1.953600e-07	6.000000e-01
250.098867	3065603.923973	1.957200e-07	6.000000e-01
251.123312	3062005.613677	1.959500e-07	6.000000e-01
252.147956	3057792.273978	1.962200e-07	6.000000e-01
253.173563	3052503.052503	1.965600e-07	6.000000e-01
254.199435	3045066.991474	1.970400e-07	6.000000e-01
255.224441	3040129.712201	1.973600e-07	6.000000e-01
256.249895	3035976.319385	1.976300e-07	6.000000e-01
257.274717	3034440.904263	1.977300e-07	6.000000e-01
258.298511	3035669.112067	1.976500e-07	6.000000e-01
259.321818	3035515.531721	1.976600e-07	6.000000e-01
260.346536	3036590.920593	1.975900e-07	6.000000e-01
261.371510	3037974.683544	1.975000e-07	6.000000e-01
262.394875	3039975.680195	1.973700e-07	6.000000e-01
263.418756	3034134.007585	1.977500e-07	6.000000e-01
264.443668	3031068.451629	1.979500e-07	6.000000e-01
265.467793	3019627.579265	1.987000e-07	6.000000e-01
266.493025	3008272.750063	1.994500e-07	6.000000e-01
267.529388	3000000.000000	2.000000e-07	6.000000e-01
268.553990	2992966.528658	2.004700e-07	6.000000e-01
269.579759	2983590.253605	2.011000e-07	6.000000e-01
270.604929	2971326.697370	2.019300e-07	6.000000e-01
271.628821	2967505.811366	2.021900e-07	6.000000e-01
272.653741	2956830.277942	2.029200e-07	6.000000e-01
273.679407	2955519.432540	2.030100e-07	6.000000e-01
274.704349	2950868.047017	2.033300e-07	6.000000e-01
275.732725	2945218.927940	2.037200e-07	6.000000e-01
276.759536	2940744.008234	2.040300e-07	6.000000e-01
277.783569	2940167.589553	2.040700e-07	6.000000e-01
278.807892	2942186.044231	2.039300e-07	6.000000e-01
279.832171	2932838.009581	2.045800e-07	6.000000e-01
280.857818	2920134.326179	2.054700e-07	6.000000e-01
281.881926	2917720.287882	2.056400e-07	6.000000e-01
282.905781	2908949.869097	2.062600e-07	6.000000e-01
283.930103	2905287.623475	2.065200e-07	6.000000e-01
284.956383	2898130.705695	2.070300e-07	6.000000e-01
285.981616	2897011.250060	2.071100e-07	6.000000e-01
287.005011	2889060.092450	2.076800e-07	6.000000e-01
288.030302	2888364.704183	2.077300e-07	6.000000e-01
289.054972	2880875.786239	2.082700e-07	6.000000e-01
290.079804	2881705.969934	2.082100e-07	6.000000e-01
291.104093	2874389.192297	2.087400e-07	6.000000e-01
292.128855	2869440.459110	2.091000e-07	6.000000e-01
293.154406	2862595.419847	2.096000e-07	6.000000e-01
294.182942	2864371.986442	2.094700e-07	6.000000e-01
295.207027	2859185.132237	2.098500e-07	6.000000e-01
296.230817	2856734.752178	2.100300e-07	6.000000e-01
297.254708	2852388.875683	2.103500e-07	6.000000e-01
298.275985	2851439.977188	2.104200e-07	6.000000e-01
299.299932	2844950.213371	2.109000e-07	6.000000e-01
300.323554	2844950.213371	2.109000e-07	6.000000e-01
301.349096	2838489.923361	2.113800e-07	6.000000e-01
302.374520	2834734.952282	2.116600e-07	6.000000e-01
303.398882	2829788.237514	2.120300e-07	6.000000e-01
304.425724	2825790.043800	2.123300e-07	6.000000e-01
305.450171	2825923.134891	2.123200e-07	6.000000e-01
306.475699	2820211.515864	2.127500e-07	6.000000e-01
307.501770	2826189.354687	2.123000e-07	6.000000e-01
308.526691	2832058.906825	2.118600e-07	6.000000e-01
309.550098	2830055.186076	2.120100e-07	6.000000e-01
310.579916	2823928.083965	2.124700e-07	6.000000e-01
311.607613	2820344.081978	2.127400e-07	6.000000e-01
312.634846	2809251.802603	2.135800e-07	6.000000e-01
313.662723	2804262.478968	2.139600e-07	6.000000e-01
314.687088	2793946.449360	2.147500e-07	6.000000e-01
315.711244	2787844.995818	2.152200e-07	6.000000e-01
316.737130	2779450.595266	2.158700e-07	6.000000e-01
317.761903	2775079.783544	2.162100e-07	6.000000e-01
318.787863	2767527.675277	2.168000e-07	6.000000e-01
319.811699	2765359.266258	2.169700e-07	6.000000e-01
320.835738	2754947.426420	2.177900e-07	6.000000e-01
321.859224	2752167.331774	2.180100e-07	6.000000e-01
322.883287	2748637.134088	2.182900e-07	6.000000e-01
323.908068	2747378.542974	2.183900e-07	6.000000e-01
324.932148	2745869.754245	2.185100e-07	6.000000e-01
325.956143	2740226.525393	2.189600e-07	6.000000e-01
326.980161	2737600.949035	2.191700e-07	6.000000e-01
328.004709	2730126.950903	2.197700e-07	6.000000e-01
329.027601	2729878.520406	2.197900e-07	6.000000e-01
330.051448	2731867.231253	2.196300e-07	6.000000e-01
331.075697	2723806.065008	2.202800e-07	6.000000e-01
332.098982	2718006.795017	2.207500e-07	6.000000e-01
333.123712	2713949.701466	2.210800e-07	6.000000e-01
334.147694	2713213.349010	2.211400e-07	6.000000e-01
335.172214	2711864.406780	2.212500e-07	6.000000e-01
336.195927	2709659.937678	2.214300e-07	6.000000e-01
337.220042	2701364.188915	2.221100e-07	6.000000e-01
338.244798	2698933.921101	2.223100e-07	6.000000e-01
339.269677	2695538.883148	2.225900e-07	6.000000e-01
340.293834	2693239.967681	2.227800e-07	6.000000e-01
341.318158	2689859.230700	2.230600e-07	6.000000e-01
342.342685	2688292.486223	2.231900e-07	6.000000e-01
343.368147	2684083.385524	2.235400e-07	6.000000e-01
344.392073	2678571.428571	2.240000e-07	6.000000e-01
345.416056	2668564.312400	2.248400e-07	6.000000e-01
346.440147	2665008.439193	2.251400e-07	6.000000e-01
347.464066	2660753.880266	2.255000e-07	6.000000e-01
348.487932	2657925.046514	2.257400e-07	6.000000e-01
349.511908	2653106.345346	2.261500e-07	6.000000e-01
350.536352	2646669.607411	2.267000e-07	6.000000e-01
351.561081	2642706.131078	2.270400e-07	6.000000e-01
352.585552	2640728.841160	2.272100e-07	6.000000e-01
353.609908	2636551.390781	2.275700e-07	6.000000e-01
354.634356	2633080.265063	2.278700e-07	6.000000e-01
355.661216	2625475.867501	2.285300e-07	6.000000e-01
356.685956	2625246.116823	2.285500e-07	6.000000e-01
357.710112	2620087.336245	2.290000e-07	6.000000e-01
358.734320	2614265.173631	2.295100e-07	6.000000e-01
359.759168	2607788.595271	2.300800e-07	6.000000e-01
360.783814	2599878.672329	2.307800e-07	6.000000e-01
361.808358	2596166.327723	2.311100e-07	6.000000e-01
362.833974	2595043.466978	2.312100e-07	6.000000e-01
363.859343	2594706.798132	2.312400e-07	6.000000e-01
364.885020	2590338.039114	2.316300e-07	6.000000e-01
365.910063	2587880.094889	2.318500e-07	6.000000e-01
366.934064	2585538.222873	2.320600e-07	6.000000e-01
367.958980	2583311.805735	2.322600e-07	6.000000e-01
368.984554	2579757.502795	2.325800e-07	6.000000e-01
370.009051	2571906.211153	2.332900e-07	6.000000e-01
371.033331	2572236.988768	2.332600e-07	6.000000e-01
372.056897	2572016.460905	2.332800e-07	6.000000e-01
373.081774	2571465.306647	2.333300e-07	6.000000e-01
374.109224	2564869.832856	2.339300e-07	6.000000e-01
375.134254	2557108.762359	2.346400e-07	6.000000e-01
376.159197	2554060.956922	2.349200e-07	6.000000e-01
377.184227	2549719.530852	2.353200e-07	6.000000e-01
378.209165	2545392.838961	2.357200e-07	6.000000e-01
379.234041	2543881.963877	2.358600e-07	6.000000e-01
380.259526	2534640.081108	2.367200e-07	6.000000e-01
381.284260	2531325.148715	2.370300e-07	6.000000e-01
382.311271	2524296.352392	2.376900e-07	6.000000e-01
383.336117	2523128.679563	2.378000e-07	6.000000e-01
384.361370	2516567.402064	2.384200e-07	6.000000e-01
385.385421	2514879.704921	2.385800e-07	6.000000e-01
386.409345	2512562.814070	2.388000e-07	6.000000e-01
387.434746	2514563.513683	2.386100e-07	6.000000e-01
388.459257	2508361.204013	2.392000e-07	6.000000e-01
389.484181	2505114.608993	2.395100e-07	6.000000e-01
390.509210	2499583.402766	2.400400e-07	6.000000e-01
391.534213	2497502.497502	2.402400e-07	6.000000e-01
392.559303	2495217.499792	2.404600e-07	6.000000e-01
393.584163	2496671.105193	2.403200e-07	6.000000e-01
394.606924	2497398.543184	2.402500e-07	6.000000e-01
395.631152	2508990.549469	2.391400e-07	6.000000e-01
