Time	SourceV	Current	Voltage
1.033348	8399391.044149	1.904900e-07	1.600000e+00
2.110248	7591213.170755	2.107700e-07	1.600000e+00
3.144902	7156595.249810	2.235700e-07	1.600000e+00
4.173161	6860180.937272	2.332300e-07	1.600000e+00
5.211117	6600660.066007	2.424000e-07	1.600000e+00
6.254854	6425444.761255	2.490100e-07	1.600000e+00
7.282719	6315373.988553	2.533500e-07	1.600000e+00
8.306161	6230286.982594	2.568100e-07	1.600000e+00
9.330178	6139442.078201	2.606100e-07	1.600000e+00
10.354144	6050979.502307	2.644200e-07	1.600000e+00
11.378771	5919348.871624	2.703000e-07	1.600000e+00
12.403118	5836433.938863	2.741400e-07	1.600000e+00
13.427086	5801515.645963	2.757900e-07	1.600000e+00
14.458260	5754981.655996	2.780200e-07	1.600000e+00
15.481990	5641351.103589	2.836200e-07	1.600000e+00
16.505859	5574330.209386	2.870300e-07	1.600000e+00
17.529648	5476826.179229	2.921400e-07	1.600000e+00
18.554113	5380864.301328	2.973500e-07	1.600000e+00
19.577909	5278785.879248	3.031000e-07	1.600000e+00
20.601827	5191939.513905	3.081700e-07	1.600000e+00
21.625919	5102528.940906	3.135700e-07	1.600000e+00
22.650451	5010176.921873	3.193500e-07	1.600000e+00
23.675106	4926411.724860	3.247800e-07	1.600000e+00
24.699741	4843787.842093	3.303200e-07	1.600000e+00
25.724126	4764315.278564	3.358300e-07	1.600000e+00
26.748015	4680963.108160	3.418100e-07	1.600000e+00
27.772014	4608029.491389	3.472200e-07	1.600000e+00
28.796728	4527960.153951	3.533600e-07	1.600000e+00
29.820412	4461795.872839	3.586000e-07	1.600000e+00
30.844382	4389574.759945	3.645000e-07	1.600000e+00
31.868786	4328184.597073	3.696700e-07	1.600000e+00
32.892309	4268146.290714	3.748700e-07	1.600000e+00
33.916853	4208311.415045	3.802000e-07	1.600000e+00
34.941972	4142073.107590	3.862800e-07	1.600000e+00
35.967801	4082674.151569	3.919000e-07	1.600000e+00
36.992992	4023841.259462	3.976300e-07	1.600000e+00
38.016903	3971011.615209	4.029200e-07	1.600000e+00
39.041988	3915905.920360	4.085900e-07	1.600000e+00
40.067612	3868378.424119	4.136100e-07	1.600000e+00
41.091768	3817613.514352	4.191100e-07	1.600000e+00
42.117087	3772873.042822	4.240800e-07	1.600000e+00
43.142612	3731691.389122	4.287600e-07	1.600000e+00
44.167235	3693444.136657	4.332000e-07	1.600000e+00
45.192702	3652717.850376	4.380300e-07	1.600000e+00
46.217162	3611167.535604	4.430700e-07	1.600000e+00
47.242037	3569038.590230	4.483000e-07	1.600000e+00
48.267093	3528970.643375	4.533900e-07	1.600000e+00
49.292153	3490477.540959	4.583900e-07	1.600000e+00
50.316242	3467406.380028	4.614400e-07	1.600000e+00
51.339336	3461929.593007	4.621700e-07	1.600000e+00
52.363122	3417707.999573	4.681500e-07	1.600000e+00
53.387030	3380662.609872	4.732800e-07	1.600000e+00
54.411279	3340222.542327	4.790100e-07	1.600000e+00
55.435159	3299921.626861	4.848600e-07	1.600000e+00
56.459126	3270512.243980	4.892200e-07	1.600000e+00
57.483313	3227042.617132	4.958100e-07	1.600000e+00
58.507170	3197825.478675	5.003400e-07	1.600000e+00
59.530992	3199168.216264	5.001300e-07	1.600000e+00
60.555081	3159183.351104	5.064600e-07	1.600000e+00
61.579430	3127504.446920	5.115900e-07	1.600000e+00
62.604285	3097413.659594	5.165600e-07	1.600000e+00
63.628887	3063490.847821	5.222800e-07	1.600000e+00
64.653473	3038013.139407	5.266600e-07	1.600000e+00
65.677753	3015170.074437	5.306500e-07	1.600000e+00
66.701967	2990039.431145	5.351100e-07	1.600000e+00
67.727346	2969341.548512	5.388400e-07	1.600000e+00
68.752247	2944532.371453	5.433800e-07	1.600000e+00
69.776221	2932067.657461	5.456900e-07	1.600000e+00
70.800118	2924136.922711	5.471700e-07	1.600000e+00
71.824403	2896032.435563	5.524800e-07	1.600000e+00
72.849262	2875990.868729	5.563300e-07	1.600000e+00
73.874275	2860360.763001	5.593700e-07	1.600000e+00
74.898547	2840253.492624	5.633300e-07	1.600000e+00
75.923345	2834115.667346	5.645500e-07	1.600000e+00
76.947357	2806131.397103	5.701800e-07	1.600000e+00
77.971365	2778163.633838	5.759200e-07	1.600000e+00
78.996055	2749235.368913	5.819800e-07	1.600000e+00
80.022016	2727024.815926	5.867200e-07	1.600000e+00
81.047295	2702018.069746	5.921500e-07	1.600000e+00
82.071285	2685104.383433	5.958800e-07	1.600000e+00
83.114060	2669157.880689	5.994400e-07	1.600000e+00
84.138257	2661388.246644	6.011900e-07	1.600000e+00
85.162677	2645109.028088	6.048900e-07	1.600000e+00
86.186226	2645283.954700	6.048500e-07	1.600000e+00
87.210170	2648962.765517	6.040100e-07	1.600000e+00
88.234025	2614977.282385	6.118600e-07	1.600000e+00
89.258681	2588117.306417	6.182100e-07	1.600000e+00
90.282178	2570239.835505	6.225100e-07	1.600000e+00
91.306268	2558239.930928	6.254300e-07	1.600000e+00
92.331071	2545379.341065	6.285900e-07	1.600000e+00
93.355461	2532847.870825	6.317000e-07	1.600000e+00
94.379451	2515644.162133	6.360200e-07	1.600000e+00
95.403960	2503794.814015	6.390300e-07	1.600000e+00
96.427315	2489342.502412	6.427400e-07	1.600000e+00
97.451572	2477854.178282	6.457200e-07	1.600000e+00
98.476003	2463888.632234	6.493800e-07	1.600000e+00
99.499991	2449366.991718	6.532300e-07	1.600000e+00
100.525315	2433867.262964	6.573900e-07	1.600000e+00
101.549413	2422957.522526	6.603500e-07	1.600000e+00
102.573289	2410509.822828	6.637600e-07	1.600000e+00
103.597277	2399592.069348	6.667800e-07	1.600000e+00
104.621227	2392523.364486	6.687500e-07	1.600000e+00
105.646110	2380881.521383	6.720200e-07	1.600000e+00
106.672448	2369808.637952	6.751600e-07	1.600000e+00
107.697121	2361100.863278	6.776500e-07	1.600000e+00
108.722152	2361623.616236	6.775000e-07	1.600000e+00
109.747314	2360439.041662	6.778400e-07	1.600000e+00
110.772580	2359638.385417	6.780700e-07	1.600000e+00
111.797244	2349037.628647	6.811300e-07	1.600000e+00
112.821994	2358490.566038	6.784000e-07	1.600000e+00
113.847016	2371529.784932	6.746700e-07	1.600000e+00
114.871563	2353460.322130	6.798500e-07	1.600000e+00
115.895535	2337199.450758	6.845800e-07	1.600000e+00
116.920099	2312940.904360	6.917600e-07	1.600000e+00
117.943374	2300437.083046	6.955200e-07	1.600000e+00
118.967538	2289311.775647	6.989000e-07	1.600000e+00
119.992658	2273760.800364	7.036800e-07	1.600000e+00
121.017407	2258483.428378	7.084400e-07	1.600000e+00
122.041243	2240425.680879	7.141500e-07	1.600000e+00
123.065231	2226396.716065	7.186500e-07	1.600000e+00
124.089760	2221605.109692	7.202000e-07	1.600000e+00
125.114224	2210738.663056	7.237400e-07	1.600000e+00
126.138586	2203249.793445	7.262000e-07	1.600000e+00
127.162469	2197349.447229	7.281500e-07	1.600000e+00
128.186789	2190250.646808	7.305100e-07	1.600000e+00
129.211332	2181738.845860	7.333600e-07	1.600000e+00
130.235649	2176219.362912	7.352200e-07	1.600000e+00
131.260308	2164267.936371	7.392800e-07	1.600000e+00
132.284754	2158923.776497	7.411100e-07	1.600000e+00
133.309194	2152794.596486	7.432200e-07	1.600000e+00
134.333230	2147852.818386	7.449300e-07	1.600000e+00
135.357116	2142445.869766	7.468100e-07	1.600000e+00
136.381871	2132963.619639	7.501300e-07	1.600000e+00
137.405313	2127546.407106	7.520400e-07	1.600000e+00
138.429165	2118812.405647	7.551400e-07	1.600000e+00
139.452435	2113857.658110	7.569100e-07	1.600000e+00
140.476914	2107065.253177	7.593500e-07	1.600000e+00
141.501217	2095310.433336	7.636100e-07	1.600000e+00
142.526340	2088036.853850	7.662700e-07	1.600000e+00
143.551376	2082032.063294	7.684800e-07	1.600000e+00
144.576822	2075011.671941	7.710800e-07	1.600000e+00
145.600518	2068706.928875	7.734300e-07	1.600000e+00
146.626340	2062573.318036	7.757300e-07	1.600000e+00
147.650788	2056290.965172	7.781000e-07	1.600000e+00
148.676479	2049994.234391	7.804900e-07	1.600000e+00
149.701371	2040347.879313	7.841800e-07	1.600000e+00
150.726508	2034587.995931	7.864000e-07	1.600000e+00
151.751202	2028860.541199	7.886200e-07	1.600000e+00
152.776261	2021861.376129	7.913500e-07	1.600000e+00
153.797564	2014225.467363	7.943500e-07	1.600000e+00
154.821459	2011313.639221	7.955000e-07	1.600000e+00
155.845337	2005540.305093	7.977900e-07	1.600000e+00
156.869181	2002177.367888	7.991300e-07	1.600000e+00
157.893087	1996879.875195	8.012500e-07	1.600000e+00
158.917363	1991337.681087	8.034800e-07	1.600000e+00
159.943266	1988071.570577	8.048000e-07	1.600000e+00
160.968729	1983659.604012	8.065900e-07	1.600000e+00
161.992874	1978557.384347	8.086700e-07	1.600000e+00
163.017176	1972289.334845	8.112400e-07	1.600000e+00
164.041280	1969885.377295	8.122300e-07	1.600000e+00
165.090424	1966955.153423	8.134400e-07	1.600000e+00
166.114530	1963190.184049	8.150000e-07	1.600000e+00
167.138827	1963334.724029	8.149400e-07	1.600000e+00
168.163570	1960592.098814	8.160800e-07	1.600000e+00
169.187629	1958743.955439	8.168500e-07	1.600000e+00
170.212440	1949460.243195	8.207400e-07	1.600000e+00
171.237389	1941323.497294	8.241800e-07	1.600000e+00
172.261255	1935874.168179	8.265000e-07	1.600000e+00
173.284508	1933160.959814	8.276600e-07	1.600000e+00
174.308539	1929826.677442	8.290900e-07	1.600000e+00
175.333228	1930222.458138	8.289200e-07	1.600000e+00
176.356525	1928361.374922	8.297200e-07	1.600000e+00
177.379708	1926898.295899	8.303500e-07	1.600000e+00
178.403414	1922222.088735	8.323700e-07	1.600000e+00
179.427393	1916328.314949	8.349300e-07	1.600000e+00
180.451702	1906963.994136	8.390300e-07	1.600000e+00
181.475883	1900756.738777	8.417700e-07	1.600000e+00
182.499360	1895465.099749	8.441200e-07	1.600000e+00
183.523573	1888975.466931	8.470200e-07	1.600000e+00
184.548257	1883660.423117	8.494100e-07	1.600000e+00
185.572287	1879412.213830	8.513300e-07	1.600000e+00
186.596736	1875468.867217	8.531200e-07	1.600000e+00
187.620635	1868634.962160	8.562400e-07	1.600000e+00
188.644997	1865127.936119	8.578500e-07	1.600000e+00
189.668438	1859384.079024	8.605000e-07	1.600000e+00
190.691788	1854212.539112	8.629000e-07	1.600000e+00
191.715442	1846530.254244	8.664900e-07	1.600000e+00
192.739551	1843148.096950	8.680800e-07	1.600000e+00
193.764129	1839587.932303	8.697600e-07	1.600000e+00
194.788295	1837074.458924	8.709500e-07	1.600000e+00
195.812583	1832047.083610	8.733400e-07	1.600000e+00
196.836496	1831795.388455	8.734600e-07	1.600000e+00
197.860758	1829637.846059	8.744900e-07	1.600000e+00
198.884658	1828864.046819	8.748600e-07	1.600000e+00
199.908654	1824318.161087	8.770400e-07	1.600000e+00
200.932753	1822406.487767	8.779600e-07	1.600000e+00
201.957438	1820250.284414	8.790000e-07	1.600000e+00
202.981529	1816592.299919	8.807700e-07	1.600000e+00
204.006336	1824567.805501	8.769200e-07	1.600000e+00
205.027502	1827861.173944	8.753400e-07	1.600000e+00
206.052360	1835451.750562	8.717200e-07	1.600000e+00
207.076681	1832550.681480	8.731000e-07	1.600000e+00
208.100572	1821182.630471	8.785500e-07	1.600000e+00
209.124613	1812332.925558	8.828400e-07	1.600000e+00
210.148929	1800139.510812	8.888200e-07	1.600000e+00
211.173307	1800139.510812	8.888200e-07	1.600000e+00
212.197358	1789308.879445	8.942000e-07	1.600000e+00
213.220857	1780725.868382	8.985100e-07	1.600000e+00
214.245142	1775233.276748	9.012900e-07	1.600000e+00
215.268818	1771596.873132	9.031400e-07	1.600000e+00
216.293481	1767272.325620	9.053500e-07	1.600000e+00
217.317614	1763474.043866	9.073000e-07	1.600000e+00
218.341899	1760098.565520	9.090400e-07	1.600000e+00
219.365815	1755829.903978	9.112500e-07	1.600000e+00
220.389470	1754135.923607	9.121300e-07	1.600000e+00
221.413847	1748481.007125	9.150800e-07	1.600000e+00
222.438185	1748461.899922	9.150900e-07	1.600000e+00
223.461687	1743356.178563	9.177700e-07	1.600000e+00
224.485585	1740019.357715	9.195300e-07	1.600000e+00
225.509741	1737864.815841	9.206700e-07	1.600000e+00
226.533244	1735941.585566	9.216900e-07	1.600000e+00
227.557518	1729561.448075	9.250900e-07	1.600000e+00
228.581465	1725309.207760	9.273700e-07	1.600000e+00
229.605752	1720874.204096	9.297600e-07	1.600000e+00
230.630324	1720282.126269	9.300800e-07	1.600000e+00
231.654880	1717549.057495	9.315600e-07	1.600000e+00
232.680684	1715229.090285	9.328200e-07	1.600000e+00
233.707125	1711010.351613	9.351200e-07	1.600000e+00
234.732540	1707158.328265	9.372300e-07	1.600000e+00
235.756937	1702000.914825	9.400700e-07	1.600000e+00
236.781503	1705484.197623	9.381500e-07	1.600000e+00
237.805669	1706229.871819	9.377400e-07	1.600000e+00
238.829601	1707103.685210	9.372600e-07	1.600000e+00
239.853439	1701892.291492	9.401300e-07	1.600000e+00
240.877845	1698117.212541	9.422200e-07	1.600000e+00
241.901730	1689064.363909	9.472700e-07	1.600000e+00
242.925753	1685523.460380	9.492600e-07	1.600000e+00
243.950190	1683891.473195	9.501800e-07	1.600000e+00
244.973670	1682952.740583	9.507100e-07	1.600000e+00
245.997664	1682174.210167	9.511500e-07	1.600000e+00
247.021898	1679913.484456	9.524300e-07	1.600000e+00
248.046599	1676727.028840	9.542400e-07	1.600000e+00
249.071474	1670686.756675	9.576900e-07	1.600000e+00
250.094956	1667778.519013	9.593600e-07	1.600000e+00
251.118849	1665261.602190	9.608100e-07	1.600000e+00
252.143872	1660681.294501	9.634600e-07	1.600000e+00
253.168841	1656040.407386	9.661600e-07	1.600000e+00
254.194947	1652261.015934	9.683700e-07	1.600000e+00
255.218873	1649212.501031	9.701600e-07	1.600000e+00
256.242687	1646632.636259	9.716800e-07	1.600000e+00
257.266737	1641446.524750	9.747500e-07	1.600000e+00
258.292518	1638337.087856	9.766000e-07	1.600000e+00
259.318675	1635239.409270	9.784500e-07	1.600000e+00
260.342809	1633236.359924	9.796500e-07	1.600000e+00
261.367178	1630074.881565	9.815500e-07	1.600000e+00
262.391688	1628830.296244	9.823000e-07	1.600000e+00
263.418800	1626379.881681	9.837800e-07	1.600000e+00
264.443877	1623228.398381	9.856900e-07	1.600000e+00
265.467957	1621846.269247	9.865300e-07	1.600000e+00
266.491911	1621665.450418	9.866400e-07	1.600000e+00
267.515925	1618188.438044	9.887600e-07	1.600000e+00
268.539952	1615280.554041	9.905400e-07	1.600000e+00
269.564740	1613895.641473	9.913900e-07	1.600000e+00
270.590038	1615835.184811	9.902000e-07	1.600000e+00
271.615110	1618073.885299	9.888300e-07	1.600000e+00
272.639985	1618057.521945	9.888400e-07	1.600000e+00
273.664881	1624184.101268	9.851100e-07	1.600000e+00
274.688572	1630290.803122	9.814200e-07	1.600000e+00
275.712957	1630972.161344	9.810100e-07	1.600000e+00
276.736753	1637197.118533	9.772800e-07	1.600000e+00
277.760558	1631953.652516	9.804200e-07	1.600000e+00
278.784936	1622191.580826	9.863200e-07	1.600000e+00
279.809503	1607927.080507	9.950700e-07	1.600000e+00
280.833863	1622060.016221	9.864000e-07	1.600000e+00
281.857685	1595850.787951	1.002600e-06	1.600000e+00
282.882323	1587301.587302	1.008000e-06	1.600000e+00
283.907724	1581340.185807	1.011800e-06	1.600000e+00
284.931750	1578064.897919	1.013900e-06	1.600000e+00
285.956087	1574958.165174	1.015900e-06	1.600000e+00
286.982013	1572172.545937	1.017700e-06	1.600000e+00
288.005976	1570475.068708	1.018800e-06	1.600000e+00
289.029736	1568012.544100	1.020400e-06	1.600000e+00
290.053498	1566477.383983	1.021400e-06	1.600000e+00
291.077059	1566630.764712	1.021300e-06	1.600000e+00
292.100635	1585728.444004	1.009000e-06	1.600000e+00
293.124663	1586357.326988	1.008600e-06	1.600000e+00
294.147931	1580403.002766	1.012400e-06	1.600000e+00
295.172044	1576044.129236	1.015200e-06	1.600000e+00
296.196827	1570937.653412	1.018500e-06	1.600000e+00
297.220740	1567551.680219	1.020700e-06	1.600000e+00
298.244698	1563721.657545	1.023200e-06	1.600000e+00
299.269119	1557632.398754	1.027200e-06	1.600000e+00
300.293429	1554454.483630	1.029300e-06	1.600000e+00
301.318721	1547388.781431	1.034000e-06	1.600000e+00
302.342737	1542614.731971	1.037200e-06	1.600000e+00
303.367783	1538757.453356	1.039800e-06	1.600000e+00
304.391857	1535950.849573	1.041700e-06	1.600000e+00
305.416689	1534477.798024	1.042700e-06	1.600000e+00
306.440184	1532713.861481	1.043900e-06	1.600000e+00
307.463868	1530953.975696	1.045100e-06	1.600000e+00
308.487470	1530953.975696	1.045100e-06	1.600000e+00
309.510979	1531393.568147	1.044800e-06	1.600000e+00
310.534718	1532273.510822	1.044200e-06	1.600000e+00
311.558518	1529636.711281	1.046000e-06	1.600000e+00
312.583637	1547837.863984	1.033700e-06	1.600000e+00
313.607864	1553398.058252	1.030000e-06	1.600000e+00
314.632809	1556268.845443	1.028100e-06	1.600000e+00
315.657897	1560823.334309	1.025100e-06	1.600000e+00
316.683862	1556117.486870	1.028200e-06	1.600000e+00
317.708085	1554303.477754	1.029400e-06	1.600000e+00
318.732170	1559454.191033	1.026000e-06	1.600000e+00
319.756145	1543358.734446	1.036700e-06	1.600000e+00
320.780716	1536688.436420	1.041200e-06	1.600000e+00
321.805139	1537279.016141	1.040800e-06	1.600000e+00
322.829095	1527883.880825	1.047200e-06	1.600000e+00
323.853163	1520767.987834	1.052100e-06	1.600000e+00
324.877514	1512573.265268	1.057800e-06	1.600000e+00
325.922665	1507869.192348	1.061100e-06	1.600000e+00
326.946027	1506307.663340	1.062200e-06	1.600000e+00
327.969158	1505882.352941	1.062500e-06	1.600000e+00
328.993012	1496445.940890	1.069200e-06	1.600000e+00
330.016907	1491285.301519	1.072900e-06	1.600000e+00
331.041059	1487127.056418	1.075900e-06	1.600000e+00
332.064237	1486022.104579	1.076700e-06	1.600000e+00
333.088777	1482854.494903	1.079000e-06	1.600000e+00
334.112097	1480795.927811	1.080500e-06	1.600000e+00
335.137120	1478606.413455	1.082100e-06	1.600000e+00
336.162027	1477241.251962	1.083100e-06	1.600000e+00
337.187270	1478333.179340	1.082300e-06	1.600000e+00
338.211216	1475878.608984	1.084100e-06	1.600000e+00
339.236215	1474790.303254	1.084900e-06	1.600000e+00
340.260192	1473025.225557	1.086200e-06	1.600000e+00
341.285129	1470588.235294	1.088000e-06	1.600000e+00
342.308887	1471941.122355	1.087000e-06	1.600000e+00
343.332951	1479153.184802	1.081700e-06	1.600000e+00
344.357276	1481618.668395	1.079900e-06	1.600000e+00
345.380885	1477104.874446	1.083200e-06	1.600000e+00
346.404809	1470047.776553	1.088400e-06	1.600000e+00
347.428940	1463325.406987	1.093400e-06	1.600000e+00
348.453145	1466813.348001	1.090800e-06	1.600000e+00
349.479036	1459188.326493	1.096500e-06	1.600000e+00
350.503111	1456001.456001	1.098900e-06	1.600000e+00
351.527234	1451905.626134	1.102000e-06	1.600000e+00
352.552909	1451773.886217	1.102100e-06	1.600000e+00
353.579222	1457593.149312	1.097700e-06	1.600000e+00
354.603278	1456399.053341	1.098600e-06	1.600000e+00
355.627805	1457460.375296	1.097800e-06	1.600000e+00
356.654602	1458124.487378	1.097300e-06	1.600000e+00
357.679860	1459987.225112	1.095900e-06	1.600000e+00
358.704902	1456001.456001	1.098900e-06	1.600000e+00
359.728903	1450457.800743	1.103100e-06	1.600000e+00
360.752266	1445347.786811	1.107000e-06	1.600000e+00
361.776894	1440792.435840	1.110500e-06	1.600000e+00
362.801039	1438202.247191	1.112500e-06	1.600000e+00
363.824915	1436523.612857	1.113800e-06	1.600000e+00
364.847966	1433178.072375	1.116400e-06	1.600000e+00
365.872524	1429464.844099	1.119300e-06	1.600000e+00
366.897379	1426406.347508	1.121700e-06	1.600000e+00
367.921135	1425389.755011	1.122500e-06	1.600000e+00
368.945177	1423234.299947	1.124200e-06	1.600000e+00
369.969862	1419320.500310	1.127300e-06	1.600000e+00
370.994259	1417685.628212	1.128600e-06	1.600000e+00
372.017216	1417936.901808	1.128400e-06	1.600000e+00
373.041146	1414677.276746	1.131000e-06	1.600000e+00
374.065453	1412678.792160	1.132600e-06	1.600000e+00
375.090200	1410934.744268	1.134000e-06	1.600000e+00
376.114876	1408078.852416	1.136300e-06	1.600000e+00
377.138375	1405728.342998	1.138200e-06	1.600000e+00
378.162683	1404371.105065	1.139300e-06	1.600000e+00
379.187123	1404864.342787	1.138900e-06	1.600000e+00
380.210625	1405728.342998	1.138200e-06	1.600000e+00
381.234311	1406717.074028	1.137400e-06	1.600000e+00
382.258949	1404987.706358	1.138800e-06	1.600000e+00
383.283081	1405111.091596	1.138700e-06	1.600000e+00
384.306642	1404864.342787	1.138900e-06	1.600000e+00
385.330411	1405357.927097	1.138500e-06	1.600000e+00
386.354923	1407583.355327	1.136700e-06	1.600000e+00
387.379400	1406593.406593	1.137500e-06	1.600000e+00
388.403295	1404494.382022	1.139200e-06	1.600000e+00
389.427304	1404247.849745	1.139400e-06	1.600000e+00
390.451732	1400437.636761	1.142500e-06	1.600000e+00
391.476685	1400682.832881	1.142300e-06	1.600000e+00
392.500352	1399825.021872	1.143000e-06	1.600000e+00
393.524149	1398479.153920	1.144100e-06	1.600000e+00
394.548345	1399212.942720	1.143500e-06	1.600000e+00
395.572309	1398234.728655	1.144300e-06	1.600000e+00
