Time	SourceV	Current	Voltage
3.530224	13917884.481559	1.868100e-07	2.600000e+00
4.586782	13111447.302068	1.983000e-07	2.600000e+00
5.614376	12531328.320802	2.074800e-07	2.600000e+00
6.641682	12001477.104874	2.166400e-07	2.600000e+00
7.671392	11447692.849595	2.271200e-07	2.600000e+00
8.703531	10929421.161041	2.378900e-07	2.600000e+00
9.730412	10441347.737039	2.490100e-07	2.600000e+00
10.756456	9989626.157452	2.602700e-07	2.600000e+00
11.780666	9548993.682973	2.722800e-07	2.600000e+00
12.804482	9161058.454600	2.838100e-07	2.600000e+00
13.828473	8793290.043290	2.956800e-07	2.600000e+00
14.853288	8465746.288096	3.071200e-07	2.600000e+00
15.879421	8130589.780474	3.197800e-07	2.600000e+00
16.926699	7816492.799808	3.326300e-07	2.600000e+00
17.952584	7528594.179818	3.453500e-07	2.600000e+00
18.978581	7258109.541622	3.582200e-07	2.600000e+00
20.002452	7012055.341298	3.707900e-07	2.600000e+00
21.026307	6781959.986436	3.833700e-07	2.600000e+00
22.050379	6566319.830286	3.959600e-07	2.600000e+00
23.074682	6356657.376167	4.090200e-07	2.600000e+00
24.099508	6160261.574184	4.220600e-07	2.600000e+00
25.123683	5973441.161605	4.352600e-07	2.600000e+00
26.147760	5799946.462033	4.482800e-07	2.600000e+00
27.169645	5638445.523942	4.611200e-07	2.600000e+00
28.194175	5485000.632885	4.740200e-07	2.600000e+00
29.218861	5345284.842006	4.864100e-07	2.600000e+00
30.243658	5213973.448843	4.986600e-07	2.600000e+00
31.267635	5087664.370695	5.110400e-07	2.600000e+00
32.292752	4967994.649852	5.233500e-07	2.600000e+00
33.316508	4851741.961970	5.358900e-07	2.600000e+00
34.340836	4738904.583979	5.486500e-07	2.600000e+00
35.364532	4634168.077711	5.610500e-07	2.600000e+00
36.388736	4528985.507246	5.740800e-07	2.600000e+00
37.412543	4434060.405546	5.863700e-07	2.600000e+00
38.436439	4340277.777778	5.990400e-07	2.600000e+00
39.460487	4254065.905298	6.111800e-07	2.600000e+00
40.485439	4171412.985930	6.232900e-07	2.600000e+00
41.508756	4089915.212912	6.357100e-07	2.600000e+00
42.532755	4013336.626327	6.478400e-07	2.600000e+00
43.557549	3941782.898727	6.596000e-07	2.600000e+00
44.582603	3872909.001534	6.713300e-07	2.600000e+00
45.606478	3806679.257990	6.830100e-07	2.600000e+00
46.629968	3746019.853905	6.940700e-07	2.600000e+00
47.654155	3688937.444134	7.048100e-07	2.600000e+00
48.678853	3635753.439982	7.151200e-07	2.600000e+00
49.702723	3580478.131541	7.261600e-07	2.600000e+00
50.726699	3531984.839634	7.361300e-07	2.600000e+00
51.750633	3486142.583232	7.458100e-07	2.600000e+00
52.777462	3441292.867259	7.555300e-07	2.600000e+00
53.801671	3403007.735298	7.640300e-07	2.600000e+00
54.824884	3370844.785562	7.713200e-07	2.600000e+00
55.849515	3334231.010913	7.797900e-07	2.600000e+00
56.874810	3294224.970225	7.892600e-07	2.600000e+00
57.898882	3255208.333333	7.987200e-07	2.600000e+00
58.922870	3213049.925853	8.092000e-07	2.600000e+00
59.947233	3176309.616888	8.185600e-07	2.600000e+00
60.972874	3144654.088050	8.268000e-07	2.600000e+00
61.996650	3108449.003503	8.364300e-07	2.600000e+00
63.020809	3071797.355891	8.464100e-07	2.600000e+00
64.046656	3036744.609778	8.561800e-07	2.600000e+00
65.071809	3004425.750240	8.653900e-07	2.600000e+00
66.096646	2973705.580273	8.743300e-07	2.600000e+00
67.120591	2946509.519492	8.824000e-07	2.600000e+00
68.143997	2918921.346296	8.907400e-07	2.600000e+00
69.168109	2897581.633790	8.973000e-07	2.600000e+00
70.193779	2876424.383228	9.039000e-07	2.600000e+00
71.217946	2853160.973147	9.112700e-07	2.600000e+00
72.241991	2830733.050986	9.184900e-07	2.600000e+00
73.267208	2808897.723712	9.256300e-07	2.600000e+00
74.291940	2787307.032590	9.328000e-07	2.600000e+00
75.315829	2768254.509061	9.392200e-07	2.600000e+00
76.339982	2748036.739137	9.461300e-07	2.600000e+00
77.364572	2721401.731230	9.553900e-07	2.600000e+00
78.389122	2703180.395704	9.618300e-07	2.600000e+00
79.412947	2685589.745179	9.681300e-07	2.600000e+00
80.437036	2666584.617909	9.750300e-07	2.600000e+00
81.461209	2648844.696198	9.815600e-07	2.600000e+00
82.487220	2630886.608787	9.882600e-07	2.600000e+00
83.513583	2613853.423143	9.947000e-07	2.600000e+00
84.537155	2645502.645503	9.828000e-07	2.600000e+00
85.561650	2590157.401873	1.003800e-06	2.600000e+00
86.584994	2571965.575230	1.010900e-06	2.600000e+00
87.609807	2558048.012593	1.016400e-06	2.600000e+00
88.633952	2549019.607843	1.020000e-06	2.600000e+00
89.658312	2525497.814473	1.029500e-06	2.600000e+00
90.690279	2508925.986683	1.036300e-06	2.600000e+00
91.714640	2495201.535509	1.042000e-06	2.600000e+00
92.739922	2483048.419444	1.047100e-06	2.600000e+00
93.763921	2468432.545334	1.053300e-06	2.600000e+00
94.788743	2460024.600246	1.056900e-06	2.600000e+00
95.813860	2443379.381637	1.064100e-06	2.600000e+00
96.839614	2427411.072729	1.071100e-06	2.600000e+00
97.864851	2415458.937198	1.076400e-06	2.600000e+00
98.888869	2406293.382693	1.080500e-06	2.600000e+00
99.913342	2396092.526034	1.085100e-06	2.600000e+00
100.938123	2387292.259664	1.089100e-06	2.600000e+00
101.963709	2376599.634369	1.094000e-06	2.600000e+00
102.987683	2368373.109856	1.097800e-06	2.600000e+00
104.011816	2357848.916296	1.102700e-06	2.600000e+00
105.035802	2349751.468595	1.106500e-06	2.600000e+00
106.061608	2342975.578985	1.109700e-06	2.600000e+00
107.086625	2332884.701660	1.114500e-06	2.600000e+00
108.110876	2323918.484090	1.118800e-06	2.600000e+00
109.135485	2315433.253184	1.122900e-06	2.600000e+00
110.160481	2307009.760426	1.127000e-06	2.600000e+00
111.184065	2300274.263470	1.130300e-06	2.600000e+00
112.208053	2291152.626013	1.134800e-06	2.600000e+00
113.232502	2283907.238229	1.138400e-06	2.600000e+00
114.258089	2277106.323349	1.141800e-06	2.600000e+00
115.282747	2268562.952622	1.146100e-06	2.600000e+00
116.306877	2259494.220909	1.150700e-06	2.600000e+00
117.331573	2254400.416197	1.153300e-06	2.600000e+00
118.356773	2251667.099680	1.154700e-06	2.600000e+00
119.381019	2247579.529737	1.156800e-06	2.600000e+00
120.404995	2240992.932253	1.160200e-06	2.600000e+00
121.429041	2233101.434338	1.164300e-06	2.600000e+00
122.452911	2226217.998116	1.167900e-06	2.600000e+00
123.477882	2218808.670422	1.171800e-06	2.600000e+00
124.501756	2210508.416936	1.176200e-06	2.600000e+00
125.525762	2199847.702851	1.181900e-06	2.600000e+00
126.550100	2194833.699139	1.184600e-06	2.600000e+00
127.576084	2188736.425625	1.187900e-06	2.600000e+00
128.600356	2179197.049702	1.193100e-06	2.600000e+00
129.624103	2169921.548990	1.198200e-06	2.600000e+00
130.649248	2162881.623825	1.202100e-06	2.600000e+00
131.674889	2157855.423687	1.204900e-06	2.600000e+00
132.699115	2151605.428666	1.208400e-06	2.600000e+00
133.723116	2144860.584062	1.212200e-06	2.600000e+00
134.747044	2140798.682585	1.214500e-06	2.600000e+00
135.770945	2134646.962233	1.218000e-06	2.600000e+00
136.794701	2130623.617143	1.220300e-06	2.600000e+00
137.817952	2125572.269457	1.223200e-06	2.600000e+00
138.842548	2121583.027336	1.225500e-06	2.600000e+00
139.866770	2116057.621877	1.228700e-06	2.600000e+00
140.890845	2111760.883691	1.231200e-06	2.600000e+00
141.914670	2106286.454958	1.234400e-06	2.600000e+00
142.939199	2101179.893325	1.237400e-06	2.600000e+00
143.964049	2095253.445080	1.240900e-06	2.600000e+00
144.987965	2091881.889130	1.242900e-06	2.600000e+00
146.011911	2088688.946015	1.244800e-06	2.600000e+00
147.036147	2085505.735141	1.246700e-06	2.600000e+00
148.060157	2080499.319837	1.249700e-06	2.600000e+00
149.084172	2076179.829114	1.252300e-06	2.600000e+00
150.108077	2067101.287963	1.257800e-06	2.600000e+00
151.132801	2059895.420694	1.262200e-06	2.600000e+00
152.157366	2051767.676768	1.267200e-06	2.600000e+00
153.181161	2045472.425458	1.271100e-06	2.600000e+00
154.204936	2036500.352471	1.276700e-06	2.600000e+00
155.230483	2024606.759072	1.284200e-06	2.600000e+00
156.255142	2016911.023194	1.289100e-06	2.600000e+00
157.279131	2011294.190454	1.292700e-06	2.600000e+00
158.304148	2007102.053420	1.295400e-06	2.600000e+00
159.329065	2003390.352905	1.297800e-06	2.600000e+00
160.354717	2002927.355366	1.298100e-06	2.600000e+00
161.379236	2000153.857989	1.299900e-06	2.600000e+00
162.402775	1994476.833384	1.303600e-06	2.600000e+00
163.426964	1990659.214455	1.306100e-06	2.600000e+00
164.452798	1989136.255834	1.307100e-06	2.600000e+00
165.477327	1987615.625717	1.308100e-06	2.600000e+00
166.501289	1979745.678824	1.313300e-06	2.600000e+00
167.525163	1973584.332777	1.317400e-06	2.600000e+00
168.549836	1968056.922262	1.321100e-06	2.600000e+00
169.574150	1959602.050045	1.326800e-06	2.600000e+00
170.597838	1957683.909344	1.328100e-06	2.600000e+00
171.622389	1949025.487256	1.334000e-06	2.600000e+00
172.646286	1945234.176268	1.336600e-06	2.600000e+00
173.670996	1939719.486720	1.340400e-06	2.600000e+00
174.695076	1935820.117638	1.343100e-06	2.600000e+00
175.719061	1928354.223837	1.348300e-06	2.600000e+00
176.744181	1924500.370096	1.351000e-06	2.600000e+00
177.767174	1920661.889636	1.353700e-06	2.600000e+00
178.791198	1916556.096123	1.356600e-06	2.600000e+00
179.814945	1912327.155046	1.359600e-06	2.600000e+00
180.839634	1911343.086084	1.360300e-06	2.600000e+00
181.865066	1908817.267455	1.362100e-06	2.600000e+00
182.889168	1907976.810743	1.362700e-06	2.600000e+00
183.913137	1907137.093816	1.363300e-06	2.600000e+00
184.937709	1903646.214673	1.365800e-06	2.600000e+00
185.962258	1901279.707495	1.367500e-06	2.600000e+00
186.985880	1899196.493791	1.369000e-06	2.600000e+00
188.010208	1895596.383785	1.371600e-06	2.600000e+00
189.034576	1891596.944343	1.374500e-06	2.600000e+00
190.058989	1889534.883721	1.376000e-06	2.600000e+00
191.083146	1888711.317739	1.376600e-06	2.600000e+00
192.107145	1882966.396292	1.380800e-06	2.600000e+00
193.131156	1876578.852400	1.385500e-06	2.600000e+00
194.155289	1871042.026482	1.389600e-06	2.600000e+00
195.182021	1866073.351037	1.393300e-06	2.600000e+00
196.206079	1864601.262192	1.394400e-06	2.600000e+00
197.230219	1863265.013616	1.395400e-06	2.600000e+00
198.255510	1861130.994989	1.397000e-06	2.600000e+00
199.280228	1855817.273376	1.401000e-06	2.600000e+00
200.304226	1852247.631260	1.403700e-06	2.600000e+00
201.327991	1852247.631260	1.403700e-06	2.600000e+00
202.352600	1851719.962966	1.404100e-06	2.600000e+00
203.377185	1849086.124742	1.406100e-06	2.600000e+00
204.401025	1846984.442708	1.407700e-06	2.600000e+00
205.425119	1847246.891652	1.407500e-06	2.600000e+00
206.449714	1851851.851852	1.404000e-06	2.600000e+00
207.477473	1850533.807829	1.405000e-06	2.600000e+00
208.501395	1847509.415192	1.407300e-06	2.600000e+00
209.525110	1842534.193183	1.411100e-06	2.600000e+00
210.549675	1843710.112041	1.410200e-06	2.600000e+00
211.574156	1839535.870949	1.413400e-06	2.600000e+00
212.599310	1836028.529059	1.416100e-06	2.600000e+00
213.623409	1828153.564899	1.422200e-06	2.600000e+00
214.647325	1816276.632903	1.431500e-06	2.600000e+00
215.673058	1805304.818775	1.440200e-06	2.600000e+00
216.698458	1796945.193172	1.446900e-06	2.600000e+00
217.722452	1789647.577093	1.452800e-06	2.600000e+00
218.746360	1783387.063585	1.457900e-06	2.600000e+00
219.771764	1780578.003013	1.460200e-06	2.600000e+00
220.796110	1775713.700314	1.464200e-06	2.600000e+00
221.820088	1770393.572109	1.468600e-06	2.600000e+00
222.844446	1767024.602419	1.471400e-06	2.600000e+00
223.868800	1764626.035021	1.473400e-06	2.600000e+00
224.893371	1760444.173607	1.476900e-06	2.600000e+00
225.917203	1758063.425519	1.478900e-06	2.600000e+00
226.941199	1754030.897929	1.482300e-06	2.600000e+00
227.965685	1753084.754905	1.483100e-06	2.600000e+00
228.990211	1750252.440256	1.485500e-06	2.600000e+00
230.014292	1749310.368028	1.486300e-06	2.600000e+00
231.038277	1747077.005779	1.488200e-06	2.600000e+00
232.062537	1743796.109993	1.491000e-06	2.600000e+00
233.087309	1740877.134248	1.493500e-06	2.600000e+00
234.114167	1738432.736026	1.495600e-06	2.600000e+00
235.138401	1734836.858611	1.498700e-06	2.600000e+00
236.162600	1730910.059250	1.502100e-06	2.600000e+00
237.186807	1725854.629937	1.506500e-06	2.600000e+00
238.211460	1723337.973089	1.508700e-06	2.600000e+00
239.236018	1719349.292422	1.512200e-06	2.600000e+00
240.259503	1716624.851446	1.514600e-06	2.600000e+00
241.283939	1711089.174070	1.519500e-06	2.600000e+00
242.307504	1712667.149727	1.518100e-06	2.600000e+00
243.331576	1705253.492490	1.524700e-06	2.600000e+00
244.354555	1699568.571055	1.529800e-06	2.600000e+00
245.379993	1694694.303220	1.534200e-06	2.600000e+00
246.404580	1692487.957297	1.536200e-06	2.600000e+00
247.428619	1690617.075232	1.537900e-06	2.600000e+00
248.452167	1690617.075232	1.537900e-06	2.600000e+00
249.477223	1692598.138142	1.536100e-06	2.600000e+00
250.501548	1693700.736108	1.535100e-06	2.600000e+00
251.525504	1692047.377327	1.536600e-06	2.600000e+00
252.549413	1688750.324760	1.539600e-06	2.600000e+00
253.573963	1683610.697403	1.544300e-06	2.600000e+00
254.598577	1678935.812992	1.548600e-06	2.600000e+00
255.622322	1674610.331058	1.552600e-06	2.600000e+00
256.646138	1673747.907815	1.553400e-06	2.600000e+00
257.670194	1669877.970456	1.557000e-06	2.600000e+00
258.694287	1671488.267438	1.555500e-06	2.600000e+00
259.718367	1669341.894061	1.557500e-06	2.600000e+00
260.742398	1663254.861822	1.563200e-06	2.600000e+00
261.766715	1657846.075368	1.568300e-06	2.600000e+00
262.790497	1654049.239774	1.571900e-06	2.600000e+00
263.814633	1650479.273789	1.575300e-06	2.600000e+00
264.838739	1646090.534979	1.579500e-06	2.600000e+00
265.863247	1643281.506763	1.582200e-06	2.600000e+00
266.888525	1639240.905365	1.586100e-06	2.600000e+00
267.913377	1636352.193341	1.588900e-06	2.600000e+00
268.937475	1633781.575971	1.591400e-06	2.600000e+00
269.962103	1635425.839728	1.589800e-06	2.600000e+00
270.986464	1635014.463589	1.590200e-06	2.600000e+00
272.011660	1636661.211129	1.588600e-06	2.600000e+00
273.035498	1634500.534356	1.590700e-06	2.600000e+00
274.059487	1631526.104418	1.593600e-06	2.600000e+00
275.083550	1628970.615876	1.596100e-06	2.600000e+00
276.107572	1626728.398924	1.598300e-06	2.600000e+00
277.132080	1623173.929330	1.601800e-06	2.600000e+00
278.156878	1621048.693809	1.603900e-06	2.600000e+00
279.183226	1618626.657536	1.606300e-06	2.600000e+00
280.207486	1616513.305148	1.608400e-06	2.600000e+00
281.231584	1613403.661185	1.611500e-06	2.600000e+00
282.255574	1611303.916708	1.613600e-06	2.600000e+00
283.280280	1603651.390859	1.621300e-06	2.600000e+00
284.306402	1600689.527797	1.624300e-06	2.600000e+00
285.330851	1597444.089457	1.627600e-06	2.600000e+00
286.354883	1593625.498008	1.631500e-06	2.600000e+00
287.379279	1590408.612674	1.634800e-06	2.600000e+00
288.405510	1588368.257071	1.636900e-06	2.600000e+00
289.430493	1586236.349216	1.639100e-06	2.600000e+00
290.454486	1583241.992449	1.642200e-06	2.600000e+00
291.478359	1582952.815830	1.642500e-06	2.600000e+00
292.505998	1580258.919346	1.645300e-06	2.600000e+00
293.531498	1580451.036411	1.645100e-06	2.600000e+00
294.555204	1579394.970234	1.646200e-06	2.600000e+00
295.580203	1577287.066246	1.648400e-06	2.600000e+00
296.604961	1574993.942331	1.650800e-06	2.600000e+00
297.628582	1572897.761645	1.653000e-06	2.600000e+00
298.654979	1571471.743729	1.654500e-06	2.600000e+00
299.680728	1568816.750136	1.657300e-06	2.600000e+00
300.704760	1565793.435712	1.660500e-06	2.600000e+00
301.729441	1563815.710333	1.662600e-06	2.600000e+00
302.752603	1563345.559497	1.663100e-06	2.600000e+00
303.776592	1556979.459848	1.669900e-06	2.600000e+00
304.800418	1552795.031056	1.674400e-06	2.600000e+00
305.825873	1550480.052478	1.676900e-06	2.600000e+00
306.850608	1547250.654606	1.680400e-06	2.600000e+00
307.874413	1545319.465082	1.682500e-06	2.600000e+00
308.898374	1543851.315243	1.684100e-06	2.600000e+00
309.923243	1541471.512421	1.686700e-06	2.600000e+00
310.947649	1538825.757576	1.689600e-06	2.600000e+00
311.972737	1534194.842745	1.694700e-06	2.600000e+00
312.997374	1531483.772162	1.697700e-06	2.600000e+00
314.022495	1530041.781910	1.699300e-06	2.600000e+00
315.046607	1526538.280883	1.703200e-06	2.600000e+00
316.072542	1524747.830167	1.705200e-06	2.600000e+00
317.096422	1521713.683718	1.708600e-06	2.600000e+00
318.120572	1521001.521002	1.709400e-06	2.600000e+00
319.144458	1518248.175182	1.712500e-06	2.600000e+00
320.170403	1517539.251736	1.713300e-06	2.600000e+00
321.194612	1513916.385233	1.717400e-06	2.600000e+00
322.218558	1511627.906977	1.720000e-06	2.600000e+00
323.243593	1510837.352548	1.720900e-06	2.600000e+00
324.268620	1510574.018127	1.721200e-06	2.600000e+00
325.292702	1509433.962264	1.722500e-06	2.600000e+00
326.316438	1507858.261323	1.724300e-06	2.600000e+00
327.340467	1505849.646705	1.726600e-06	2.600000e+00
328.364648	1501935.185720	1.731100e-06	2.600000e+00
329.388256	1498991.063707	1.734500e-06	2.600000e+00
330.411673	1496316.758748	1.737600e-06	2.600000e+00
331.436230	1494510.547796	1.739700e-06	2.600000e+00
332.461839	1492109.038737	1.742500e-06	2.600000e+00
333.485666	1491424.310216	1.743300e-06	2.600000e+00
334.509712	1489800.595920	1.745200e-06	2.600000e+00
335.533920	1488606.435360	1.746600e-06	2.600000e+00
336.558726	1486308.809238	1.749300e-06	2.600000e+00
337.582722	1484950.596836	1.750900e-06	2.600000e+00
338.606742	1482410.627744	1.753900e-06	2.600000e+00
339.630903	1482241.605382	1.754100e-06	2.600000e+00
340.655674	1480890.812781	1.755700e-06	2.600000e+00
341.679681	1479542.479941	1.757300e-06	2.600000e+00
342.703790	1476098.557965	1.761400e-06	2.600000e+00
343.728126	1473922.902494	1.764000e-06	2.600000e+00
344.752655	1471503.763654	1.766900e-06	2.600000e+00
345.776306	1469673.845458	1.769100e-06	2.600000e+00
346.799594	1468926.553672	1.770000e-06	2.600000e+00
347.824274	1466854.724965	1.772500e-06	2.600000e+00
348.848474	1465118.900034	1.774600e-06	2.600000e+00
349.875428	1463881.538202	1.776100e-06	2.600000e+00
350.898846	1461495.222035	1.779000e-06	2.600000e+00
351.923167	1459854.014599	1.781000e-06	2.600000e+00
352.947375	1456909.111285	1.784600e-06	2.600000e+00
353.971709	1454301.375993	1.787800e-06	2.600000e+00
354.995645	1451216.789462	1.791600e-06	2.600000e+00
356.019693	1449436.949493	1.793800e-06	2.600000e+00
357.043784	1447742.079180	1.795900e-06	2.600000e+00
358.069495	1444364.201989	1.800100e-06	2.600000e+00
359.092720	1443722.583153	1.800900e-06	2.600000e+00
360.116703	1443401.987454	1.801300e-06	2.600000e+00
361.140672	1441881.100266	1.803200e-06	2.600000e+00
362.166807	1442361.034062	1.802600e-06	2.600000e+00
363.190675	1439725.344703	1.805900e-06	2.600000e+00
364.217196	1437576.025655	1.808600e-06	2.600000e+00
365.243237	1435988.070253	1.810600e-06	2.600000e+00
366.267596	1433059.582208	1.814300e-06	2.600000e+00
367.292610	1431639.226915	1.816100e-06	2.600000e+00
368.316678	1429749.793786	1.818500e-06	2.600000e+00
369.340537	1429907.056041	1.818300e-06	2.600000e+00
370.364885	1426924.976675	1.822100e-06	2.600000e+00
371.387940	1424813.678211	1.824800e-06	2.600000e+00
372.411995	1422475.106686	1.827800e-06	2.600000e+00
373.435862	1420842.668998	1.829900e-06	2.600000e+00
374.460851	1417279.912783	1.834500e-06	2.600000e+00
375.485882	1415042.995537	1.837400e-06	2.600000e+00
376.509776	1413120.278276	1.839900e-06	2.600000e+00
377.533590	1411585.862425	1.841900e-06	2.600000e+00
378.557462	1408145.580589	1.846400e-06	2.600000e+00
379.581908	1406393.682047	1.848700e-06	2.600000e+00
380.605731	1406850.278665	1.848100e-06	2.600000e+00
381.629664	1405177.538777	1.850300e-06	2.600000e+00
382.654019	1405481.377372	1.849900e-06	2.600000e+00
383.680133	1404646.137223	1.851000e-06	2.600000e+00
384.703995	1403205.785525	1.852900e-06	2.600000e+00
385.728554	1402902.929909	1.853300e-06	2.600000e+00
386.754301	1401466.149202	1.855200e-06	2.600000e+00
387.778934	1399730.820996	1.857500e-06	2.600000e+00
388.802996	1397548.914212	1.860400e-06	2.600000e+00
389.826984	1394027.129913	1.865100e-06	2.600000e+00
390.852050	1391341.574357	1.868700e-06	2.600000e+00
391.878383	1387999.145847	1.873200e-06	2.600000e+00
392.907498	1386296.987470	1.875500e-06	2.600000e+00
393.931011	1384820.239680	1.877500e-06	2.600000e+00
394.954840	1384672.737924	1.877700e-06	2.600000e+00
395.979565	1382096.534127	1.881200e-06	2.600000e+00
397.003919	1381802.721088	1.881600e-06	2.600000e+00
