Time	SourceV	Current	Voltage
1.035161	5361930.294906	2.797500e-06	1.500000e+01
2.099042	4573031.310021	3.280100e-06	1.500000e+01
3.127754	4091541.420038	3.666100e-06	1.500000e+01
4.154938	3677281.753328	4.079100e-06	1.500000e+01
5.182425	3366323.301690	4.455900e-06	1.500000e+01
6.211770	3113389.651093	4.817900e-06	1.500000e+01
7.235897	2916188.735735	5.143700e-06	1.500000e+01
8.259992	2759584.958422	5.435600e-06	1.500000e+01
9.286212	2637733.659240	5.686700e-06	1.500000e+01
10.311537	2547035.250968	5.889200e-06	1.500000e+01
11.335981	2482662.738543	6.041900e-06	1.500000e+01
12.360121	2432655.973792	6.166100e-06	1.500000e+01
13.385244	2398656.752219	6.253500e-06	1.500000e+01
14.410029	2376162.339411	6.312700e-06	1.500000e+01
15.433941	2363135.092556	6.347500e-06	1.500000e+01
16.458067	2357637.961115	6.362300e-06	1.500000e+01
17.482315	2357971.515704	6.361400e-06	1.500000e+01
18.505967	2358342.242626	6.360400e-06	1.500000e+01
19.530063	2362465.153639	6.349300e-06	1.500000e+01
20.554068	2366378.494352	6.338800e-06	1.500000e+01
21.578401	2372666.877570	6.322000e-06	1.500000e+01
22.602907	2379215.176221	6.304600e-06	1.500000e+01
23.626791	2383714.462790	6.292700e-06	1.500000e+01
24.650796	2381519.409383	6.298500e-06	1.500000e+01
25.675529	2381103.562131	6.299600e-06	1.500000e+01
26.699975	2380461.174678	6.301300e-06	1.500000e+01
27.726876	2385496.183206	6.288000e-06	1.500000e+01
28.750907	2390019.279489	6.276100e-06	1.500000e+01
29.774891	2392306.342802	6.270100e-06	1.500000e+01
30.800336	2390895.470050	6.273800e-06	1.500000e+01
31.824906	2394941.882744	6.263200e-06	1.500000e+01
32.849000	2397774.864925	6.255800e-06	1.500000e+01
33.873058	2390552.536376	6.274700e-06	1.500000e+01
34.897583	2376651.772982	6.311400e-06	1.500000e+01
35.921960	2371016.691958	6.326400e-06	1.500000e+01
36.945892	2359640.705375	6.356900e-06	1.500000e+01
37.969893	2344592.587961	6.397700e-06	1.500000e+01
38.995311	2329735.186767	6.438500e-06	1.500000e+01
40.019747	2315958.498024	6.476800e-06	1.500000e+01
41.043968	2302520.492432	6.514600e-06	1.500000e+01
42.067960	2287143.205660	6.558400e-06	1.500000e+01
43.092502	2274450.341168	6.595000e-06	1.500000e+01
44.116917	2256623.189060	6.647100e-06	1.500000e+01
45.140857	2239708.539262	6.697300e-06	1.500000e+01
46.164966	2222584.421165	6.748900e-06	1.500000e+01
47.189422	2205331.020186	6.801700e-06	1.500000e+01
48.213872	2186079.048618	6.861600e-06	1.500000e+01
49.237951	2170735.589934	6.910100e-06	1.500000e+01
50.262026	2157218.051601	6.953400e-06	1.500000e+01
51.286322	2139678.192400	7.010400e-06	1.500000e+01
52.310080	2125579.220338	7.056900e-06	1.500000e+01
53.333891	2109585.958596	7.110400e-06	1.500000e+01
54.357913	2092984.316571	7.166800e-06	1.500000e+01
55.382157	2075176.735885	7.228300e-06	1.500000e+01
56.406891	2058432.023713	7.287100e-06	1.500000e+01
57.430856	2039844.971782	7.353500e-06	1.500000e+01
58.454757	2024264.179971	7.410100e-06	1.500000e+01
59.479156	2009915.583545	7.463000e-06	1.500000e+01
60.502671	1998454.528498	7.505800e-06	1.500000e+01
61.526734	1985256.164220	7.555700e-06	1.500000e+01
62.550974	1968297.291623	7.620800e-06	1.500000e+01
63.575341	1951371.814386	7.686900e-06	1.500000e+01
64.599143	1935309.068858	7.750700e-06	1.500000e+01
65.622877	1921180.373221	7.807700e-06	1.500000e+01
66.647142	1904592.607641	7.875700e-06	1.500000e+01
67.671468	1887599.728186	7.946600e-06	1.500000e+01
68.695099	1873337.413046	8.007100e-06	1.500000e+01
69.718279	1860903.654815	8.060600e-06	1.500000e+01
70.742012	1847859.562673	8.117500e-06	1.500000e+01
71.766385	1830116.395403	8.196200e-06	1.500000e+01
72.790718	1817322.720169	8.253900e-06	1.500000e+01
73.814801	1802711.277762	8.320800e-06	1.500000e+01
74.838156	1789271.527919	8.383300e-06	1.500000e+01
75.862626	1774370.985486	8.453700e-06	1.500000e+01
76.887146	1760997.428944	8.517900e-06	1.500000e+01
77.910950	1747355.668422	8.584400e-06	1.500000e+01
78.934921	1734324.596191	8.648900e-06	1.500000e+01
79.959475	1722415.515519	8.708700e-06	1.500000e+01
80.983205	1711781.622313	8.762800e-06	1.500000e+01
82.007807	1699158.350231	8.827900e-06	1.500000e+01
83.032335	1687421.956735	8.889300e-06	1.500000e+01
84.057415	1674742.647880	8.956600e-06	1.500000e+01
85.080983	1663856.597746	9.015200e-06	1.500000e+01
86.105042	1654533.421575	9.066000e-06	1.500000e+01
87.128909	1643493.409591	9.126900e-06	1.500000e+01
88.152613	1632830.784303	9.186500e-06	1.500000e+01
89.176898	1623323.918055	9.240300e-06	1.500000e+01
90.200321	1612591.111398	9.301800e-06	1.500000e+01
91.224095	1603797.793174	9.352800e-06	1.500000e+01
92.248214	1595099.853251	9.403800e-06	1.500000e+01
93.272693	1583865.688190	9.470500e-06	1.500000e+01
94.296917	1573564.122738	9.532500e-06	1.500000e+01
95.321000	1563346.812857	9.594800e-06	1.500000e+01
96.345601	1552039.897772	9.664700e-06	1.500000e+01
97.369183	1541497.101985	9.730800e-06	1.500000e+01
98.392693	1529472.943624	9.807300e-06	1.500000e+01
99.416241	1516821.551001	9.889100e-06	1.500000e+01
100.440424	1507416.489127	9.950800e-06	1.500000e+01
101.464940	1498501.498501	1.001000e-05	1.500000e+01
102.488803	1488685.986503	1.007600e-05	1.500000e+01
103.512042	1479289.940828	1.014000e-05	1.500000e+01
104.537097	1470588.235294	1.020000e-05	1.500000e+01
105.562080	1461845.823994	1.026100e-05	1.500000e+01
106.585346	1453770.110487	1.031800e-05	1.500000e+01
107.609254	1444808.322096	1.038200e-05	1.500000e+01
108.633676	1436231.328993	1.044400e-05	1.500000e+01
109.658924	1427755.568247	1.050600e-05	1.500000e+01
110.683277	1419647.927314	1.056600e-05	1.500000e+01
111.707309	1410172.040989	1.063700e-05	1.500000e+01
112.731492	1402131.239484	1.069800e-05	1.500000e+01
113.755793	1393145.723043	1.076700e-05	1.500000e+01
114.780121	1384019.191733	1.083800e-05	1.500000e+01
115.804118	1374255.611544	1.091500e-05	1.500000e+01
116.828347	1366120.218579	1.098000e-05	1.500000e+01
117.852278	1358449.556240	1.104200e-05	1.500000e+01
118.876119	1348799.568384	1.112100e-05	1.500000e+01
119.900031	1341081.805990	1.118500e-05	1.500000e+01
120.924291	1333570.412518	1.124800e-05	1.500000e+01
121.948278	1324503.311258	1.132500e-05	1.500000e+01
122.971104	1316829.075586	1.139100e-05	1.500000e+01
123.996025	1309586.170770	1.145400e-05	1.500000e+01
125.020251	1302422.505861	1.151700e-05	1.500000e+01
126.044117	1295448.657052	1.157900e-05	1.500000e+01
127.068331	1288881.251074	1.163800e-05	1.500000e+01
128.092308	1282489.740082	1.169600e-05	1.500000e+01
129.116292	1276595.744681	1.175000e-05	1.500000e+01
130.140242	1269895.022012	1.181200e-05	1.500000e+01
131.164266	1262945.188179	1.187700e-05	1.500000e+01
132.188890	1255860.683188	1.194400e-05	1.500000e+01
133.212569	1249583.472176	1.200400e-05	1.500000e+01
134.237195	1240694.789082	1.209000e-05	1.500000e+01
135.261081	1233349.777997	1.216200e-05	1.500000e+01
136.285137	1225590.326007	1.223900e-05	1.500000e+01
137.308750	1218026.796590	1.231500e-05	1.500000e+01
138.333319	1209970.154070	1.239700e-05	1.500000e+01
139.357203	1202694.034638	1.247200e-05	1.500000e+01
140.381071	1196458.482891	1.253700e-05	1.500000e+01
141.405383	1189154.907246	1.261400e-05	1.500000e+01
142.429090	1182685.484507	1.268300e-05	1.500000e+01
143.453152	1176101.615180	1.275400e-05	1.500000e+01
144.477204	1169590.643275	1.282500e-05	1.500000e+01
145.501904	1162520.344106	1.290300e-05	1.500000e+01
146.526303	1156158.470788	1.297400e-05	1.500000e+01
147.550185	1150394.968939	1.303900e-05	1.500000e+01
148.575123	1145213.009620	1.309800e-05	1.500000e+01
149.599384	1140164.183642	1.315600e-05	1.500000e+01
150.623948	1134387.052862	1.322300e-05	1.500000e+01
151.648252	1128413.450688	1.329300e-05	1.500000e+01
152.672883	1122670.458798	1.336100e-05	1.500000e+01
153.696106	1117235.215254	1.342600e-05	1.500000e+01
154.720030	1111193.421735	1.349900e-05	1.500000e+01
155.745019	1105216.622458	1.357200e-05	1.500000e+01
156.768802	1098418.277680	1.365600e-05	1.500000e+01
157.792437	1092020.966803	1.373600e-05	1.500000e+01
158.816204	1087035.292412	1.379900e-05	1.500000e+01
159.840347	1082173.003391	1.386100e-05	1.500000e+01
160.864384	1076812.634602	1.393000e-05	1.500000e+01
161.888309	1071122.536418	1.400400e-05	1.500000e+01
162.912328	1064887.121965	1.408600e-05	1.500000e+01
163.937313	1057007.962793	1.419100e-05	1.500000e+01
164.961039	1050273.070998	1.428200e-05	1.500000e+01
165.985836	1043768.700856	1.437100e-05	1.500000e+01
167.011600	1037416.142195	1.445900e-05	1.500000e+01
168.036168	1031565.917062	1.454100e-05	1.500000e+01
169.060306	1026483.268323	1.461300e-05	1.500000e+01
170.084173	1021520.021792	1.468400e-05	1.500000e+01
171.108957	1016191.314952	1.476100e-05	1.500000e+01
172.133090	1011258.679970	1.483300e-05	1.500000e+01
173.157329	1006171.183257	1.490800e-05	1.500000e+01
174.181269	1000333.444481	1.499500e-05	1.500000e+01
175.205612	995024.875622	1.507500e-05	1.500000e+01
176.229373	989772.352359	1.515500e-05	1.500000e+01
177.252962	984445.757039	1.523700e-05	1.500000e+01
178.277343	979943.816555	1.530700e-05	1.500000e+01
179.302234	975419.430355	1.537800e-05	1.500000e+01
180.327350	970120.294917	1.546200e-05	1.500000e+01
181.351367	964444.158683	1.555300e-05	1.500000e+01
182.375322	958282.757299	1.565300e-05	1.500000e+01
183.399633	953107.129241	1.573800e-05	1.500000e+01
184.424085	947987.107375	1.582300e-05	1.500000e+01
185.448146	942507.068803	1.591500e-05	1.500000e+01
186.472261	937031.484258	1.600800e-05	1.500000e+01
187.496657	931619.154090	1.610100e-05	1.500000e+01
188.520216	925868.773532	1.620100e-05	1.500000e+01
189.543361	920471.281296	1.629600e-05	1.500000e+01
190.567030	914634.146341	1.640000e-05	1.500000e+01
191.591392	908925.649882	1.650300e-05	1.500000e+01
192.615149	903560.026504	1.660100e-05	1.500000e+01
193.639281	898634.076204	1.669200e-05	1.500000e+01
194.663242	893495.353824	1.678800e-05	1.500000e+01
195.688182	888152.051631	1.688900e-05	1.500000e+01
196.713007	883080.183681	1.698600e-05	1.500000e+01
197.736959	878683.146857	1.707100e-05	1.500000e+01
198.760364	874125.874126	1.716000e-05	1.500000e+01
199.785040	869011.065408	1.726100e-05	1.500000e+01
200.809286	863955.765465	1.736200e-05	1.500000e+01
201.833064	858811.405015	1.746600e-05	1.500000e+01
202.857305	853290.858411	1.757900e-05	1.500000e+01
203.881015	848704.311418	1.767400e-05	1.500000e+01
204.906885	844071.802375	1.777100e-05	1.500000e+01
205.931329	839630.562552	1.786500e-05	1.500000e+01
206.955133	834213.892442	1.798100e-05	1.500000e+01
207.979100	829095.732921	1.809200e-05	1.500000e+01
209.002974	824583.585289	1.819100e-05	1.500000e+01
210.027614	819940.964251	1.829400e-05	1.500000e+01
211.051312	814907.372195	1.840700e-05	1.500000e+01
212.075327	810285.220398	1.851200e-05	1.500000e+01
213.099455	804936.946606	1.863500e-05	1.500000e+01
214.123244	800811.488975	1.873100e-05	1.500000e+01
215.147347	796474.273881	1.883300e-05	1.500000e+01
216.172368	791556.728232	1.895000e-05	1.500000e+01
217.195995	786163.522013	1.908000e-05	1.500000e+01
218.219010	782105.427812	1.917900e-05	1.500000e+01
219.243230	777927.600871	1.928200e-05	1.500000e+01
220.267734	773714.344664	1.938700e-05	1.500000e+01
221.291182	768875.903429	1.950900e-05	1.500000e+01
222.315435	763630.809958	1.964300e-05	1.500000e+01
223.339310	758380.100106	1.977900e-05	1.500000e+01
224.363852	753428.097845	1.990900e-05	1.500000e+01
225.388115	748951.467945	2.002800e-05	1.500000e+01
226.411949	744601.638124	2.014500e-05	1.500000e+01
227.436501	739936.858721	2.027200e-05	1.500000e+01
228.460776	734466.043187	2.042300e-05	1.500000e+01
229.485204	729642.961378	2.055800e-05	1.500000e+01
230.510038	724707.701227	2.069800e-05	1.500000e+01
231.534751	719183.008103	2.085700e-05	1.500000e+01
232.559354	714183.688045	2.100300e-05	1.500000e+01
233.583367	709689.629069	2.113600e-05	1.500000e+01
234.608151	704887.218045	2.128000e-05	1.500000e+01
235.631981	700443.614289	2.141500e-05	1.500000e+01
236.655311	695539.274784	2.156600e-05	1.500000e+01
237.679287	690162.878439	2.173400e-05	1.500000e+01
238.704197	684962.783689	2.189900e-05	1.500000e+01
239.727508	680766.088772	2.203400e-05	1.500000e+01
240.751241	676559.469577	2.217100e-05	1.500000e+01
241.775134	672314.105150	2.231100e-05	1.500000e+01
242.799067	667972.924831	2.245600e-05	1.500000e+01
243.823167	663511.301809	2.260700e-05	1.500000e+01
244.848057	658212.295406	2.278900e-05	1.500000e+01
245.871104	653680.219637	2.294700e-05	1.500000e+01
246.895372	648732.808581	2.312200e-05	1.500000e+01
247.919518	643804.455127	2.329900e-05	1.500000e+01
248.944409	638977.635783	2.347500e-05	1.500000e+01
249.968472	633874.239351	2.366400e-05	1.500000e+01
250.993292	628930.817610	2.385000e-05	1.500000e+01
252.017149	624557.605030	2.401700e-05	1.500000e+01
253.041436	619937.179699	2.419600e-05	1.500000e+01
254.065490	616041.726560	2.434900e-05	1.500000e+01
255.090318	611545.988258	2.452800e-05	1.500000e+01
256.114309	606452.656263	2.473400e-05	1.500000e+01
257.138359	601950.319034	2.491900e-05	1.500000e+01
258.163269	597157.530156	2.511900e-05	1.500000e+01
259.188265	592721.381436	2.530700e-05	1.500000e+01
260.211952	588212.226971	2.550100e-05	1.500000e+01
261.236312	583612.170259	2.570200e-05	1.500000e+01
262.261293	578480.524489	2.593000e-05	1.500000e+01
263.285365	573745.410037	2.614400e-05	1.500000e+01
264.309075	568763.508133	2.637300e-05	1.500000e+01
265.333579	563719.042429	2.660900e-05	1.500000e+01
266.357535	558700.834327	2.684800e-05	1.500000e+01
267.381531	553546.387187	2.709800e-05	1.500000e+01
268.405498	548285.693399	2.735800e-05	1.500000e+01
269.429413	543163.383546	2.761600e-05	1.500000e+01
270.453459	538193.821535	2.787100e-05	1.500000e+01
271.479081	533542.007541	2.811400e-05	1.500000e+01
272.502498	528038.863660	2.840700e-05	1.500000e+01
273.526380	522484.238392	2.870900e-05	1.500000e+01
274.550883	517437.648763	2.898900e-05	1.500000e+01
275.575319	512242.598094	2.928300e-05	1.500000e+01
276.599374	506756.756757	2.960000e-05	1.500000e+01
277.623461	501588.363150	2.990500e-05	1.500000e+01
278.647887	495982.541415	3.024300e-05	1.500000e+01
279.672217	490436.488475	3.058500e-05	1.500000e+01
280.696806	485342.651912	3.090600e-05	1.500000e+01
281.721322	480000.000000	3.125000e-05	1.500000e+01
282.745822	474503.353157	3.161200e-05	1.500000e+01
283.768404	468823.253633	3.199500e-05	1.500000e+01
284.791477	463606.861382	3.235500e-05	1.500000e+01
285.815136	458267.139191	3.273200e-05	1.500000e+01
286.840591	452324.950244	3.316200e-05	1.500000e+01
287.864199	446894.086102	3.356500e-05	1.500000e+01
288.888010	441007.849940	3.401300e-05	1.500000e+01
289.911368	435262.027741	3.446200e-05	1.500000e+01
290.935682	429627.083691	3.491400e-05	1.500000e+01
291.960342	423968.343697	3.538000e-05	1.500000e+01
292.984529	417617.907456	3.591800e-05	1.500000e+01
294.008476	411692.054343	3.643500e-05	1.500000e+01
295.033356	406041.903524	3.694200e-05	1.500000e+01
296.058539	399467.376831	3.755000e-05	1.500000e+01
297.082572	393329.137823	3.813600e-05	1.500000e+01
298.106271	387046.832667	3.875500e-05	1.500000e+01
299.131302	380546.464723	3.941700e-05	1.500000e+01
300.155435	374896.903352	4.001100e-05	1.500000e+01
301.179528	370233.246946	4.051500e-05	1.500000e+01
302.204026	365461.455998	4.104400e-05	1.500000e+01
303.227857	360880.548538	4.156500e-05	1.500000e+01
304.251257	356769.099039	4.204400e-05	1.500000e+01
305.275154	352841.550621	4.251200e-05	1.500000e+01
306.298520	348877.776486	4.299500e-05	1.500000e+01
307.322819	345303.867403	4.344000e-05	1.500000e+01
308.346394	341327.993447	4.394600e-05	1.500000e+01
309.369609	337662.922360	4.442300e-05	1.500000e+01
310.393427	333681.845483	4.495300e-05	1.500000e+01
311.417442	329648.594598	4.550300e-05	1.500000e+01
312.442128	325860.271116	4.603200e-05	1.500000e+01
313.465645	322192.628233	4.655600e-05	1.500000e+01
314.489524	319094.622192	4.700800e-05	1.500000e+01
315.513413	315629.997475	4.752400e-05	1.500000e+01
316.538482	312447.925346	4.800800e-05	1.500000e+01
317.563316	309814.937211	4.841600e-05	1.500000e+01
318.587384	306873.977087	4.888000e-05	1.500000e+01
319.611525	304006.809753	4.934100e-05	1.500000e+01
320.635442	301186.675501	4.980300e-05	1.500000e+01
321.659451	298745.269867	5.021000e-05	1.500000e+01
322.684234	295963.063810	5.068200e-05	1.500000e+01
323.708638	293398.533007	5.112500e-05	1.500000e+01
324.732433	290838.584586	5.157500e-05	1.500000e+01
325.755639	288389.441101	5.201300e-05	1.500000e+01
326.779400	286226.767927	5.240600e-05	1.500000e+01
327.804029	283961.835529	5.282400e-05	1.500000e+01
328.827139	281547.384425	5.327700e-05	1.500000e+01
329.850200	279277.601936	5.371000e-05	1.500000e+01
330.874438	276967.391706	5.415800e-05	1.500000e+01
331.898719	274841.050259	5.457700e-05	1.500000e+01
332.923665	272672.738180	5.501100e-05	1.500000e+01
333.947596	270314.104990	5.549100e-05	1.500000e+01
334.971683	267895.413631	5.599200e-05	1.500000e+01
335.995490	265059.815165	5.659100e-05	1.500000e+01
337.019392	262123.197903	5.722500e-05	1.500000e+01
338.043332	259013.675922	5.791200e-05	1.500000e+01
339.067224	256213.169357	5.854500e-05	1.500000e+01
340.091043	253523.983369	5.916600e-05	1.500000e+01
341.116467	250735.490773	5.982400e-05	1.500000e+01
342.140491	247524.752475	6.060000e-05	1.500000e+01
343.164289	244482.837305	6.135400e-05	1.500000e+01
344.188124	241623.711340	6.208000e-05	1.500000e+01
345.213242	238724.257568	6.283400e-05	1.500000e+01
346.237309	236194.435259	6.350700e-05	1.500000e+01
347.261302	233688.539914	6.418800e-05	1.500000e+01
348.285799	231338.679827	6.484000e-05	1.500000e+01
349.310366	229095.074456	6.547500e-05	1.500000e+01
350.334504	227059.429021	6.606200e-05	1.500000e+01
351.358494	225127.196866	6.662900e-05	1.500000e+01
352.383107	223041.693927	6.725200e-05	1.500000e+01
353.407430	221199.787648	6.781200e-05	1.500000e+01
354.431638	219471.512598	6.834600e-05	1.500000e+01
355.455566	217754.228061	6.888500e-05	1.500000e+01
356.479125	215939.191524	6.946400e-05	1.500000e+01
357.503646	214053.313545	7.007600e-05	1.500000e+01
358.527533	212167.074499	7.069900e-05	1.500000e+01
359.551388	210437.710438	7.128000e-05	1.500000e+01
360.575594	208797.327394	7.184000e-05	1.500000e+01
361.599653	207090.788602	7.243200e-05	1.500000e+01
362.624217	204716.672126	7.327200e-05	1.500000e+01
363.647695	202549.422059	7.405600e-05	1.500000e+01
364.671817	200574.981614	7.478500e-05	1.500000e+01
365.695663	198654.447211	7.550800e-05	1.500000e+01
366.720217	196752.275768	7.623800e-05	1.500000e+01
367.744265	194876.058827	7.697200e-05	1.500000e+01
368.768919	193042.739663	7.770300e-05	1.500000e+01
369.794135	191350.937620	7.839000e-05	1.500000e+01
370.818535	189535.133496	7.914100e-05	1.500000e+01
371.842514	187828.700225	7.986000e-05	1.500000e+01
372.866368	186249.798229	8.053700e-05	1.500000e+01
373.890297	184692.671395	8.121600e-05	1.500000e+01
374.914334	183192.682063	8.188100e-05	1.500000e+01
375.938208	181648.643085	8.257700e-05	1.500000e+01
376.961324	180173.687435	8.325300e-05	1.500000e+01
377.985372	178826.895565	8.388000e-05	1.500000e+01
379.009623	177382.543193	8.456300e-05	1.500000e+01
380.033878	176019.150884	8.521800e-05	1.500000e+01
381.058489	174696.900877	8.586300e-05	1.500000e+01
382.085064	173374.326730	8.651800e-05	1.500000e+01
383.110239	171925.682258	8.724700e-05	1.500000e+01
384.134489	170489.418290	8.798200e-05	1.500000e+01
385.158502	169025.511584	8.874400e-05	1.500000e+01
386.182978	167685.823840	8.945300e-05	1.500000e+01
387.207495	166439.199760	9.012300e-05	1.500000e+01
388.231282	165241.914162	9.077600e-05	1.500000e+01
389.254454	164077.882301	9.142000e-05	1.500000e+01
390.279087	162831.089883	9.212000e-05	1.500000e+01
391.303383	161658.835194	9.278800e-05	1.500000e+01
392.327313	160398.644097	9.351700e-05	1.500000e+01
393.350438	159222.146739	9.420800e-05	1.500000e+01
394.375197	157976.219313	9.495100e-05	1.500000e+01
395.399520	156834.863345	9.564200e-05	1.500000e+01
396.423369	155819.872228	9.626500e-05	1.500000e+01
397.448535	154832.316601	9.687900e-05	1.500000e+01
398.472534	153847.731772	9.749900e-05	1.500000e+01
399.497459	152838.205476	9.814300e-05	1.500000e+01
