Time	SourceV	Current	Voltage
1.027878	2704652.001442	2.218400e-06	6.000000e+00
2.078057	2703555.175055	2.219300e-06	6.000000e+00
3.107045	2687088.539567	2.232900e-06	6.000000e+00
4.135301	2669157.880689	2.247900e-06	6.000000e+00
5.161774	2650293.740890	2.263900e-06	6.000000e+00
6.190561	2631463.532301	2.280100e-06	6.000000e+00
7.214382	2614606.937424	2.294800e-06	6.000000e+00
8.238507	2595829.367483	2.311400e-06	6.000000e+00
9.262290	2574444.349095	2.330600e-06	6.000000e+00
10.286138	2558199.027884	2.345400e-06	6.000000e+00
11.310020	2540435.261241	2.361800e-06	6.000000e+00
12.334272	2525146.248054	2.376100e-06	6.000000e+00
13.359239	2509830.168159	2.390600e-06	6.000000e+00
14.384407	2492211.838006	2.407500e-06	6.000000e+00
15.408411	2478417.117601	2.420900e-06	6.000000e+00
16.433437	2463762.164826	2.435300e-06	6.000000e+00
17.458316	2453686.664213	2.445300e-06	6.000000e+00
18.482544	2440115.498800	2.458900e-06	6.000000e+00
19.506421	2429149.797571	2.470000e-06	6.000000e+00
20.530386	2416918.429003	2.482500e-06	6.000000e+00
21.554372	2402787.233191	2.497100e-06	6.000000e+00
22.578196	2390438.247012	2.510000e-06	6.000000e+00
23.602447	2376237.623762	2.525000e-06	6.000000e+00
24.626502	2361832.782239	2.540400e-06	6.000000e+00
25.650259	2349440.050121	2.553800e-06	6.000000e+00
26.673500	2337631.978805	2.566700e-06	6.000000e+00
27.697400	2323420.074349	2.582400e-06	6.000000e+00
28.721275	2306982.466933	2.600800e-06	6.000000e+00
29.746135	2293928.735281	2.615600e-06	6.000000e+00
30.770039	2282497.051775	2.628700e-06	6.000000e+00
31.794172	2273588.480485	2.639000e-06	6.000000e+00
32.818963	2260227.529571	2.654600e-06	6.000000e+00
33.844002	2253267.237494	2.662800e-06	6.000000e+00
34.867444	2243326.104838	2.674600e-06	6.000000e+00
35.892210	2234054.436460	2.685700e-06	6.000000e+00
36.916078	2221563.981043	2.700800e-06	6.000000e+00
37.939608	2214267.262059	2.709700e-06	6.000000e+00
38.963178	2204828.574578	2.721300e-06	6.000000e+00
39.986692	2193623.866628	2.735200e-06	6.000000e+00
41.010928	2184280.461611	2.746900e-06	6.000000e+00
42.036389	2176041.780002	2.757300e-06	6.000000e+00
43.060428	2165361.434913	2.770900e-06	6.000000e+00
44.084373	2156644.261529	2.782100e-06	6.000000e+00
45.108536	2150075.252634	2.790600e-06	6.000000e+00
46.132555	2141098.383471	2.802300e-06	6.000000e+00
47.156542	2130908.832617	2.815700e-06	6.000000e+00
48.180487	2124044.180119	2.824800e-06	6.000000e+00
49.204668	2119093.028184	2.831400e-06	6.000000e+00
50.228564	2108666.619807	2.845400e-06	6.000000e+00
51.253648	2095191.535426	2.863700e-06	6.000000e+00
52.277650	2085940.759282	2.876400e-06	6.000000e+00
53.301712	2078425.938756	2.886800e-06	6.000000e+00
54.325574	2069179.570300	2.899700e-06	6.000000e+00
55.348436	2063983.488132	2.907000e-06	6.000000e+00
56.372359	2059732.234809	2.913000e-06	6.000000e+00
57.396624	2051562.606852	2.924600e-06	6.000000e+00
58.420520	2041510.717931	2.939000e-06	6.000000e+00
59.443452	2038389.672159	2.943500e-06	6.000000e+00
60.467357	2034105.163237	2.949700e-06	6.000000e+00
61.491636	2029907.300900	2.955800e-06	6.000000e+00
62.516381	2020814.388198	2.969100e-06	6.000000e+00
63.541522	2008973.414585	2.986600e-06	6.000000e+00
64.566342	1999333.555482	3.001000e-06	6.000000e+00
65.589660	1987873.968790	3.018300e-06	6.000000e+00
66.613677	1978304.592964	3.032900e-06	6.000000e+00
67.638344	1967664.709933	3.049300e-06	6.000000e+00
68.662475	1961681.815210	3.058600e-06	6.000000e+00
69.686832	1954015.501856	3.070600e-06	6.000000e+00
70.710568	1945777.662472	3.083600e-06	6.000000e+00
71.734322	1938735.944164	3.094800e-06	6.000000e+00
72.757746	1930315.606602	3.108300e-06	6.000000e+00
73.781994	1924187.030979	3.118200e-06	6.000000e+00
74.807627	1916871.665442	3.130100e-06	6.000000e+00
75.831825	1910949.742022	3.139800e-06	6.000000e+00
76.855478	1906032.593157	3.147900e-06	6.000000e+00
77.879492	1899635.903119	3.158500e-06	6.000000e+00
78.903462	1890895.338943	3.173100e-06	6.000000e+00
79.927401	1885547.280098	3.182100e-06	6.000000e+00
80.951412	1882707.333145	3.186900e-06	6.000000e+00
81.975993	1877816.725088	3.195200e-06	6.000000e+00
83.001676	1876994.306451	3.196600e-06	6.000000e+00
84.025551	1872600.730314	3.204100e-06	6.000000e+00
85.049390	1866774.524750	3.214100e-06	6.000000e+00
86.073552	1857240.141150	3.230600e-06	6.000000e+00
87.097690	1846835.754740	3.248800e-06	6.000000e+00
88.122597	1842129.501704	3.257100e-06	6.000000e+00
89.146635	1833012.556136	3.273300e-06	6.000000e+00
90.170577	1822378.811809	3.292400e-06	6.000000e+00
91.196005	1813620.288366	3.308300e-06	6.000000e+00
92.220771	1805597.351791	3.323000e-06	6.000000e+00
93.245349	1796138.302649	3.340500e-06	6.000000e+00
94.268558	1788535.487525	3.354700e-06	6.000000e+00
95.293337	1782531.194296	3.366000e-06	6.000000e+00
96.317256	1777935.816517	3.374700e-06	6.000000e+00
97.341486	1775200.449717	3.379900e-06	6.000000e+00
98.365797	1768242.367087	3.393200e-06	6.000000e+00
99.390275	1766628.389718	3.396300e-06	6.000000e+00
100.414412	1763979.537837	3.401400e-06	6.000000e+00
101.438618	1755669.348939	3.417500e-06	6.000000e+00
102.462384	1744033.950528	3.440300e-06	6.000000e+00
103.486280	1739886.907351	3.448500e-06	6.000000e+00
104.510736	1735910.195579	3.456400e-06	6.000000e+00
105.534546	1739836.455373	3.448600e-06	6.000000e+00
106.559474	1735357.917570	3.457500e-06	6.000000e+00
107.583394	1733252.448219	3.461700e-06	6.000000e+00
108.607668	1727762.259913	3.472700e-06	6.000000e+00
109.631467	1719641.168210	3.489100e-06	6.000000e+00
110.655489	1710132.535271	3.508500e-06	6.000000e+00
111.679596	1703093.954016	3.523000e-06	6.000000e+00
112.703813	1695394.179147	3.539000e-06	6.000000e+00
113.727656	1689998.028336	3.550300e-06	6.000000e+00
114.752691	1682557.487381	3.566000e-06	6.000000e+00
115.777968	1679073.151620	3.573400e-06	6.000000e+00
116.801858	1671914.620893	3.588700e-06	6.000000e+00
117.826356	1668288.613930	3.596500e-06	6.000000e+00
118.849703	1662280.094196	3.609500e-06	6.000000e+00
119.874330	1655811.899768	3.623600e-06	6.000000e+00
120.898393	1650165.016502	3.636000e-06	6.000000e+00
121.922357	1642260.845764	3.653500e-06	6.000000e+00
122.945612	1636527.289093	3.666300e-06	6.000000e+00
123.969709	1630877.955966	3.679000e-06	6.000000e+00
124.993713	1634253.963066	3.671400e-06	6.000000e+00
126.016866	1626633.411050	3.688600e-06	6.000000e+00
127.040664	1623815.967524	3.695000e-06	6.000000e+00
128.064827	1638627.922220	3.661600e-06	6.000000e+00
129.089485	1632386.549135	3.675600e-06	6.000000e+00
130.114487	1619739.221985	3.704300e-06	6.000000e+00
131.137737	1610781.497490	3.724900e-06	6.000000e+00
132.162323	1608665.343986	3.729800e-06	6.000000e+00
133.186614	1603849.238172	3.741000e-06	6.000000e+00
134.210614	1595956.909163	3.759500e-06	6.000000e+00
135.234939	1588310.038119	3.777600e-06	6.000000e+00
136.260186	1582278.481013	3.792000e-06	6.000000e+00
137.283789	1575795.776867	3.807600e-06	6.000000e+00
138.308530	1570803.989842	3.819700e-06	6.000000e+00
139.331492	1565557.729941	3.832500e-06	6.000000e+00
140.355127	1560711.684528	3.844400e-06	6.000000e+00
141.378937	1555653.504110	3.856900e-06	6.000000e+00
142.402747	1553478.497268	3.862300e-06	6.000000e+00
143.426616	1551309.563823	3.867700e-06	6.000000e+00
144.450465	1552232.627930	3.865400e-06	6.000000e+00
145.473726	1546630.922308	3.879400e-06	6.000000e+00
146.497713	1541663.454868	3.891900e-06	6.000000e+00
147.521625	1536727.794283	3.904400e-06	6.000000e+00
148.546268	1531980.084259	3.916500e-06	6.000000e+00
149.571766	1526523.343086	3.930500e-06	6.000000e+00
150.595830	1521375.323292	3.943800e-06	6.000000e+00
151.620479	1517067.003793	3.955000e-06	6.000000e+00
152.644430	1512249.218671	3.967600e-06	6.000000e+00
153.669045	1508371.461612	3.977800e-06	6.000000e+00
154.692713	1505570.611262	3.985200e-06	6.000000e+00
155.716645	1500412.613469	3.998900e-06	6.000000e+00
156.741111	1495960.905555	4.010800e-06	6.000000e+00
157.764757	1491238.971045	4.023500e-06	6.000000e+00
158.788533	1487209.994051	4.034400e-06	6.000000e+00
159.811795	1482909.468377	4.046100e-06	6.000000e+00
160.835993	1479071.143322	4.056600e-06	6.000000e+00
161.860639	1473115.639578	4.073000e-06	6.000000e+00
162.884883	1469759.694290	4.082300e-06	6.000000e+00
163.909020	1464236.034849	4.097700e-06	6.000000e+00
164.933502	1460671.421964	4.107700e-06	6.000000e+00
165.957862	1458718.272878	4.113200e-06	6.000000e+00
166.982683	1455780.662380	4.121500e-06	6.000000e+00
168.006602	1452538.310698	4.130700e-06	6.000000e+00
169.031249	1450712.057835	4.135900e-06	6.000000e+00
170.055843	1446340.757883	4.148400e-06	6.000000e+00
171.080097	1444008.567784	4.155100e-06	6.000000e+00
172.103912	1440818.384843	4.164300e-06	6.000000e+00
173.127076	1437194.596148	4.174800e-06	6.000000e+00
174.150901	1434137.246935	4.183700e-06	6.000000e+00
175.174610	1433451.991304	4.185700e-06	6.000000e+00
176.197889	1429013.742349	4.198700e-06	6.000000e+00
177.221708	1428027.418126	4.201600e-06	6.000000e+00
178.245841	1429354.170141	4.197700e-06	6.000000e+00
179.269234	1423656.424250	4.214500e-06	6.000000e+00
180.293109	1416564.359241	4.235600e-06	6.000000e+00
181.317529	1412163.434381	4.248800e-06	6.000000e+00
182.342021	1408814.482613	4.258900e-06	6.000000e+00
183.366635	1403082.103688	4.276300e-06	6.000000e+00
184.391122	1397949.673812	4.292000e-06	6.000000e+00
185.415587	1393792.975283	4.304800e-06	6.000000e+00
186.439978	1390498.261877	4.315000e-06	6.000000e+00
187.464009	1389242.631226	4.318900e-06	6.000000e+00
188.487813	1385905.342665	4.329300e-06	6.000000e+00
189.511688	1383636.195923	4.336400e-06	6.000000e+00
190.535979	1379056.725200	4.350800e-06	6.000000e+00
191.559817	1378201.447112	4.353500e-06	6.000000e+00
192.583669	1376241.484506	4.359700e-06	6.000000e+00
193.608062	1373406.276467	4.368700e-06	6.000000e+00
194.631964	1369144.056774	4.382300e-06	6.000000e+00
195.655765	1364349.546354	4.397700e-06	6.000000e+00
196.679802	1359835.006686	4.412300e-06	6.000000e+00
197.704204	1354646.437280	4.429200e-06	6.000000e+00
198.729250	1348981.518953	4.447800e-06	6.000000e+00
199.753055	1345050.215208	4.460800e-06	6.000000e+00
200.777139	1342402.004654	4.469600e-06	6.000000e+00
201.802337	1338240.214118	4.483500e-06	6.000000e+00
202.827000	1334935.255640	4.494600e-06	6.000000e+00
203.851095	1342131.752600	4.470500e-06	6.000000e+00
204.875083	1333481.497944	4.499500e-06	6.000000e+00
205.898864	1327345.530164	4.520300e-06	6.000000e+00
206.922816	1322314.049587	4.537500e-06	6.000000e+00
207.947870	1320596.909803	4.543400e-06	6.000000e+00
208.971940	1318420.532202	4.550900e-06	6.000000e+00
209.995985	1318072.977307	4.552100e-06	6.000000e+00
211.019963	1315270.288044	4.561800e-06	6.000000e+00
212.044707	1313312.612179	4.568600e-06	6.000000e+00
213.069077	1308187.070751	4.586500e-06	6.000000e+00
214.092852	1304376.182091	4.599900e-06	6.000000e+00
215.117015	1302790.142221	4.605500e-06	6.000000e+00
216.142022	1294973.345132	4.633300e-06	6.000000e+00
217.166177	1290794.484005	4.648300e-06	6.000000e+00
218.189213	1288770.512931	4.655600e-06	6.000000e+00
219.213443	1286918.473715	4.662300e-06	6.000000e+00
220.238059	1293103.448276	4.640000e-06	6.000000e+00
221.263006	1291100.017215	4.647200e-06	6.000000e+00
222.287096	1288798.195683	4.655500e-06	6.000000e+00
223.311342	1288272.426676	4.657400e-06	6.000000e+00
224.336138	1286256.350891	4.664700e-06	6.000000e+00
225.359995	1280355.085144	4.686200e-06	6.000000e+00
226.383851	1275483.089220	4.704100e-06	6.000000e+00
227.408741	1269250.296158	4.727200e-06	6.000000e+00
228.433891	1264915.461483	4.743400e-06	6.000000e+00
229.457947	1259340.105785	4.764400e-06	6.000000e+00
230.482124	1254364.141910	4.783300e-06	6.000000e+00
231.506766	1250234.418954	4.799100e-06	6.000000e+00
232.531126	1247998.003203	4.807700e-06	6.000000e+00
233.554256	1245769.574154	4.816300e-06	6.000000e+00
234.578223	1244193.762442	4.822400e-06	6.000000e+00
235.602706	1243420.234592	4.825400e-06	6.000000e+00
236.627141	1240489.579888	4.836800e-06	6.000000e+00
237.651162	1237113.402062	4.850000e-06	6.000000e+00
238.675296	1235457.634099	4.856500e-06	6.000000e+00
239.699205	1233070.963234	4.865900e-06	6.000000e+00
240.723745	1229760.196762	4.879000e-06	6.000000e+00
241.747295	1226492.232216	4.892000e-06	6.000000e+00
242.771062	1223291.469581	4.904800e-06	6.000000e+00
243.794888	1220405.174518	4.916400e-06	6.000000e+00
244.818897	1216495.681440	4.932200e-06	6.000000e+00
245.842881	1213175.081384	4.945700e-06	6.000000e+00
246.866168	1209068.010076	4.962500e-06	6.000000e+00
247.890519	1205836.247438	4.975800e-06	6.000000e+00
248.915839	1203176.385658	4.986800e-06	6.000000e+00
249.939402	1199688.081099	5.001300e-06	6.000000e+00
250.963417	1197174.667784	5.011800e-06	6.000000e+00
251.987266	1194433.937850	5.023300e-06	6.000000e+00
253.012110	1192084.558531	5.033200e-06	6.000000e+00
254.036301	1188307.058544	5.049200e-06	6.000000e+00
255.061219	1184880.919468	5.063800e-06	6.000000e+00
256.085638	1183501.982366	5.069700e-06	6.000000e+00
257.109111	1181334.908447	5.079000e-06	6.000000e+00
258.133061	1179500.285046	5.086900e-06	6.000000e+00
259.157009	1174973.073534	5.106500e-06	6.000000e+00
260.181669	1173456.415873	5.113100e-06	6.000000e+00
261.205977	1171028.748756	5.123700e-06	6.000000e+00
262.229881	1168884.299936	5.133100e-06	6.000000e+00
263.253193	1167769.560140	5.138000e-06	6.000000e+00
264.277263	1166316.771635	5.144400e-06	6.000000e+00
265.301293	1163760.498089	5.155700e-06	6.000000e+00
266.325294	1160945.783832	5.168200e-06	6.000000e+00
267.350337	1156894.124906	5.186300e-06	6.000000e+00
268.374870	1153757.403277	5.200400e-06	6.000000e+00
269.399009	1150262.643304	5.216200e-06	6.000000e+00
270.423215	1147578.609135	5.228400e-06	6.000000e+00
271.447151	1144055.677376	5.244500e-06	6.000000e+00
272.471499	1142683.019730	5.250800e-06	6.000000e+00
273.496052	1140012.540138	5.263100e-06	6.000000e+00
274.520084	1138563.133326	5.269800e-06	6.000000e+00
275.543849	1136600.428119	5.278900e-06	6.000000e+00
276.567499	1133529.811834	5.293200e-06	6.000000e+00
277.591986	1132545.584960	5.297800e-06	6.000000e+00
278.615347	1131413.701420	5.303100e-06	6.000000e+00
279.639178	1128816.811845	5.315300e-06	6.000000e+00
280.663193	1125091.413677	5.332900e-06	6.000000e+00
281.687490	1122985.644500	5.342900e-06	6.000000e+00
282.711970	1121411.483254	5.350400e-06	6.000000e+00
283.735436	1119215.057173	5.360900e-06	6.000000e+00
284.760514	1116819.298637	5.372400e-06	6.000000e+00
285.784964	1113833.815995	5.386800e-06	6.000000e+00
286.810154	1110453.064850	5.403200e-06	6.000000e+00
287.834217	1108196.963540	5.414200e-06	6.000000e+00
288.859292	1105460.977228	5.427600e-06	6.000000e+00
289.885252	1102779.003088	5.440800e-06	6.000000e+00
290.910005	1099646.280446	5.456300e-06	6.000000e+00
291.934284	1096992.412469	5.469500e-06	6.000000e+00
292.958105	1094231.575876	5.483300e-06	6.000000e+00
293.983209	1092418.614813	5.492400e-06	6.000000e+00
295.007219	1090254.937946	5.503300e-06	6.000000e+00
296.030296	1089285.065902	5.508200e-06	6.000000e+00
297.054274	1087981.431784	5.514800e-06	6.000000e+00
298.078919	1084755.568412	5.531200e-06	6.000000e+00
299.103941	1083756.299333	5.536300e-06	6.000000e+00
300.128397	1082817.491112	5.541100e-06	6.000000e+00
301.152358	1081353.855026	5.548600e-06	6.000000e+00
302.176859	1078729.256935	5.562100e-06	6.000000e+00
303.201298	1074344.649764	5.584800e-06	6.000000e+00
304.225020	1069842.911399	5.608300e-06	6.000000e+00
305.248447	1065832.948449	5.629400e-06	6.000000e+00
306.272470	1063905.241506	5.639600e-06	6.000000e+00
307.297384	1061571.125265	5.652000e-06	6.000000e+00
308.321130	1059135.039718	5.665000e-06	6.000000e+00
309.344989	1056486.829131	5.679200e-06	6.000000e+00
310.368461	1060183.058275	5.659400e-06	6.000000e+00
311.393017	1055743.243243	5.683200e-06	6.000000e+00
312.416279	1051469.428526	5.706300e-06	6.000000e+00
313.439465	1049079.432798	5.719300e-06	6.000000e+00
314.464123	1047266.634085	5.729200e-06	6.000000e+00
315.488104	1046335.210924	5.734300e-06	6.000000e+00
316.512302	1043587.156921	5.749400e-06	6.000000e+00
317.537420	1041431.621335	5.761300e-06	6.000000e+00
318.562665	1036627.505183	5.788000e-06	6.000000e+00
319.587224	1033734.192481	5.804200e-06	6.000000e+00
320.611153	1031494.980058	5.816800e-06	6.000000e+00
321.634559	1030025.235618	5.825100e-06	6.000000e+00
322.658949	1027274.128101	5.840700e-06	6.000000e+00
323.683200	1024100.498396	5.858800e-06	6.000000e+00
324.706555	1022651.735951	5.867100e-06	6.000000e+00
325.730375	1020946.417329	5.876900e-06	6.000000e+00
326.754935	1018900.606246	5.888700e-06	6.000000e+00
327.779053	1016725.128362	5.901300e-06	6.000000e+00
328.802666	1014473.150277	5.914400e-06	6.000000e+00
329.826266	1011838.510574	5.929800e-06	6.000000e+00
330.850721	1009710.044932	5.942300e-06	6.000000e+00
331.875355	1007776.676688	5.953700e-06	6.000000e+00
332.899436	1005058.795940	5.969800e-06	6.000000e+00
333.923604	1003461.943706	5.979300e-06	6.000000e+00
334.948531	1001251.564456	5.992500e-06	6.000000e+00
335.973507	998452.398782	6.009300e-06	6.000000e+00
336.997547	996065.541113	6.023700e-06	6.000000e+00
338.021424	993657.155160	6.038300e-06	6.000000e+00
339.045604	991014.799154	6.054400e-06	6.000000e+00
340.069588	988614.456839	6.069100e-06	6.000000e+00
341.093489	986063.633973	6.084800e-06	6.000000e+00
342.117279	983671.060397	6.099600e-06	6.000000e+00
343.141712	981017.314956	6.116100e-06	6.000000e+00
344.165406	979383.967484	6.126300e-06	6.000000e+00
345.189582	977278.279990	6.139500e-06	6.000000e+00
346.213423	974912.257897	6.154400e-06	6.000000e+00
347.237747	972794.189176	6.167800e-06	6.000000e+00
348.262261	971738.602316	6.174500e-06	6.000000e+00
349.287448	970026.190707	6.185400e-06	6.000000e+00
350.311608	968382.317339	6.195900e-06	6.000000e+00
351.335650	970041.873474	6.185300e-06	6.000000e+00
352.359575	966525.983440	6.207800e-06	6.000000e+00
353.383420	966510.414150	6.207900e-06	6.000000e+00
354.407407	965095.705324	6.217000e-06	6.000000e+00
355.431786	962772.785623	6.232000e-06	6.000000e+00
356.455195	960168.989742	6.248900e-06	6.000000e+00
357.479246	957350.055048	6.267300e-06	6.000000e+00
358.502353	954881.833373	6.283500e-06	6.000000e+00
359.526826	951897.448915	6.303200e-06	6.000000e+00
360.550163	949502.302543	6.319100e-06	6.000000e+00
361.574416	947657.706037	6.331400e-06	6.000000e+00
362.597683	944911.650761	6.349800e-06	6.000000e+00
363.621568	941590.031700	6.372200e-06	6.000000e+00
364.645654	939864.346246	6.383900e-06	6.000000e+00
365.669488	936943.689684	6.403800e-06	6.000000e+00
366.694718	934841.544358	6.418200e-06	6.000000e+00
367.719399	933416.303671	6.428000e-06	6.000000e+00
368.743267	931923.023158	6.438300e-06	6.000000e+00
369.767201	929756.868579	6.453300e-06	6.000000e+00
370.790291	927686.812932	6.467700e-06	6.000000e+00
371.814393	926497.838172	6.476000e-06	6.000000e+00
372.838413	924998.072921	6.486500e-06	6.000000e+00
373.862267	923361.034164	6.498000e-06	6.000000e+00
374.885547	922707.839941	6.502600e-06	6.000000e+00
375.909941	921008.196973	6.514600e-06	6.000000e+00
376.934560	919385.237738	6.526100e-06	6.000000e+00
377.958283	917796.065714	6.537400e-06	6.000000e+00
378.981623	914620.203960	6.560100e-06	6.000000e+00
380.006030	911840.245589	6.580100e-06	6.000000e+00
381.030528	909063.361716	6.600200e-06	6.000000e+00
382.054557	906590.915959	6.618200e-06	6.000000e+00
383.078605	903736.952298	6.639100e-06	6.000000e+00
384.102669	901604.856645	6.654800e-06	6.000000e+00
385.126754	900049.502723	6.666300e-06	6.000000e+00
386.150682	897317.022104	6.686600e-06	6.000000e+00
387.174765	896017.203530	6.696300e-06	6.000000e+00
388.199620	896217.960208	6.694800e-06	6.000000e+00
389.224295	893868.065074	6.712400e-06	6.000000e+00
390.247858	891875.018581	6.727400e-06	6.000000e+00
391.272507	889983.238649	6.741700e-06	6.000000e+00
392.297962	888520.317498	6.752800e-06	6.000000e+00
393.321610	886668.932598	6.766900e-06	6.000000e+00
394.345369	885256.060315	6.777700e-06	6.000000e+00
395.368887	883015.202578	6.794900e-06	6.000000e+00
396.393198	880850.314170	6.811600e-06	6.000000e+00
