Time	SourceV	Current	Voltage
1.035451	13516253.294587	1.479700e-07	2.000000e+00
2.095971	12011290.613176	1.665100e-07	2.000000e+00
3.124676	11244799.280333	1.778600e-07	2.000000e+00
4.150746	10715816.545221	1.866400e-07	2.000000e+00
5.179834	10292301.358584	1.943200e-07	2.000000e+00
6.212139	9958175.662219	2.008400e-07	2.000000e+00
7.237781	9672583.063307	2.067700e-07	2.000000e+00
8.262048	9435742.592942	2.119600e-07	2.000000e+00
9.285970	9234463.015976	2.165800e-07	2.000000e+00
10.309858	9079765.742044	2.202700e-07	2.000000e+00
11.333653	8944543.828265	2.236000e-07	2.000000e+00
12.359059	8837435.376254	2.263100e-07	2.000000e+00
13.383079	8718395.815170	2.294000e-07	2.000000e+00
14.407228	8571551.022157	2.333300e-07	2.000000e+00
15.431439	8394895.903291	2.382400e-07	2.000000e+00
16.456337	8217264.472657	2.433900e-07	2.000000e+00
17.480066	8043111.075364	2.486600e-07	2.000000e+00
18.504366	7882705.344474	2.537200e-07	2.000000e+00
19.528942	7713966.135689	2.592700e-07	2.000000e+00
20.553269	7566872.233362	2.643100e-07	2.000000e+00
21.577970	7400007.400007	2.702700e-07	2.000000e+00
22.602294	7251368.695841	2.758100e-07	2.000000e+00
23.625797	7108330.963890	2.813600e-07	2.000000e+00
24.650077	6976176.357738	2.866900e-07	2.000000e+00
25.673951	6832234.482287	2.927300e-07	2.000000e+00
26.698044	6715014.773033	2.978400e-07	2.000000e+00
27.722538	6581761.937671	3.038700e-07	2.000000e+00
28.746252	6462453.147215	3.094800e-07	2.000000e+00
29.770364	6346989.940021	3.151100e-07	2.000000e+00
30.794376	6245316.012990	3.202400e-07	2.000000e+00
31.818305	6145337.225380	3.254500e-07	2.000000e+00
32.842225	6048326.125745	3.306700e-07	2.000000e+00
33.866417	5949547.834365	3.361600e-07	2.000000e+00
34.890394	5860977.611066	3.412400e-07	2.000000e+00
35.914928	5770506.939035	3.465900e-07	2.000000e+00
36.939240	5686988.171065	3.516800e-07	2.000000e+00
37.962482	5604281.671197	3.568700e-07	2.000000e+00
38.986148	5523183.563006	3.621100e-07	2.000000e+00
40.010239	5451076.587626	3.669000e-07	2.000000e+00
41.034173	5376199.564528	3.720100e-07	2.000000e+00
42.057300	5308278.259946	3.767700e-07	2.000000e+00
43.079350	5236424.569304	3.819400e-07	2.000000e+00
44.104663	5166356.685266	3.871200e-07	2.000000e+00
45.130989	5095281.769082	3.925200e-07	2.000000e+00
46.154027	5027652.086476	3.978000e-07	2.000000e+00
47.177407	4956260.996704	4.035300e-07	2.000000e+00
48.202118	4903883.876030	4.078400e-07	2.000000e+00
49.226314	4843553.230650	4.129200e-07	2.000000e+00
50.251037	4790878.167968	4.174600e-07	2.000000e+00
51.274441	4733279.689497	4.225400e-07	2.000000e+00
52.298667	4681538.353503	4.272100e-07	2.000000e+00
53.323399	4627594.345080	4.321900e-07	2.000000e+00
54.348221	4575402.635432	4.371200e-07	2.000000e+00
55.372468	4522840.343736	4.422000e-07	2.000000e+00
56.396943	4470772.325919	4.473500e-07	2.000000e+00
57.421185	4423995.752964	4.520800e-07	2.000000e+00
58.445153	4381352.961795	4.564800e-07	2.000000e+00
59.468919	4338018.393198	4.610400e-07	2.000000e+00
60.493584	4301260.269259	4.649800e-07	2.000000e+00
61.517297	4264119.565913	4.690300e-07	2.000000e+00
62.541092	4229134.507623	4.729100e-07	2.000000e+00
63.564563	4191905.430613	4.771100e-07	2.000000e+00
64.588723	4159647.261912	4.808100e-07	2.000000e+00
65.613396	4126008.293277	4.847300e-07	2.000000e+00
66.637400	4094333.442516	4.884800e-07	2.000000e+00
67.662354	4059265.272986	4.927000e-07	2.000000e+00
68.687778	4019050.298414	4.976300e-07	2.000000e+00
69.711506	3984381.225596	5.019600e-07	2.000000e+00
70.737305	3951553.948590	5.061300e-07	2.000000e+00
71.762249	3920261.873493	5.101700e-07	2.000000e+00
72.787282	3884928.420194	5.148100e-07	2.000000e+00
73.812678	3853564.547206	5.190000e-07	2.000000e+00
74.837360	3823653.118189	5.230600e-07	2.000000e+00
75.862225	3785871.128947	5.282800e-07	2.000000e+00
76.887159	3759327.832184	5.320100e-07	2.000000e+00
77.912172	3740555.098377	5.346800e-07	2.000000e+00
78.937217	3726823.814404	5.366500e-07	2.000000e+00
79.962101	3707960.992250	5.393800e-07	2.000000e+00
80.987269	3685073.609345	5.427300e-07	2.000000e+00
82.012434	3664883.090229	5.457200e-07	2.000000e+00
83.038058	3638679.159465	5.496500e-07	2.000000e+00
84.062392	3610825.254112	5.538900e-07	2.000000e+00
85.087200	3583972.475091	5.580400e-07	2.000000e+00
86.111633	3565380.158659	5.609500e-07	2.000000e+00
87.135935	3552965.838233	5.629100e-07	2.000000e+00
88.160063	3535692.819008	5.656600e-07	2.000000e+00
89.184193	3514444.366346	5.690800e-07	2.000000e+00
90.208315	3493022.687182	5.725700e-07	2.000000e+00
91.232555	3474997.393752	5.755400e-07	2.000000e+00
92.256343	3442518.546569	5.809700e-07	2.000000e+00
93.279399	3430649.421936	5.829800e-07	2.000000e+00
94.303304	3401187.014268	5.880300e-07	2.000000e+00
95.327244	3382721.060821	5.912400e-07	2.000000e+00
96.352418	3365247.093268	5.943100e-07	2.000000e+00
97.376382	3345432.648077	5.978300e-07	2.000000e+00
98.400180	3325960.786922	6.013300e-07	2.000000e+00
99.423543	3313287.941289	6.036300e-07	2.000000e+00
100.447507	3290339.563043	6.078400e-07	2.000000e+00
101.471444	3271823.059809	6.112800e-07	2.000000e+00
102.495547	3260462.007466	6.134100e-07	2.000000e+00
103.519768	3239653.357091	6.173500e-07	2.000000e+00
104.544611	3220611.916264	6.210000e-07	2.000000e+00
105.568506	3200973.095821	6.248100e-07	2.000000e+00
106.592480	3183598.102576	6.282200e-07	2.000000e+00
107.618406	3171985.028231	6.305200e-07	2.000000e+00
108.646868	3154673.649011	6.339800e-07	2.000000e+00
109.671596	3138830.471766	6.371800e-07	2.000000e+00
110.695371	3122901.800353	6.404300e-07	2.000000e+00
111.718861	3113034.274507	6.424600e-07	2.000000e+00
112.743896	3101544.569195	6.448400e-07	2.000000e+00
113.768214	3089280.197714	6.474000e-07	2.000000e+00
114.792525	3082756.600953	6.487700e-07	2.000000e+00
115.816722	3069085.105730	6.516600e-07	2.000000e+00
116.840818	3061427.543664	6.532900e-07	2.000000e+00
117.866346	3050501.044797	6.556300e-07	2.000000e+00
118.890406	3033888.534935	6.592200e-07	2.000000e+00
119.915468	3023797.284630	6.614200e-07	2.000000e+00
120.940194	3016136.329362	6.631000e-07	2.000000e+00
121.965573	3012774.162449	6.638400e-07	2.000000e+00
122.991757	2989000.478240	6.691200e-07	2.000000e+00
124.015542	2968283.886671	6.737900e-07	2.000000e+00
125.039553	2954340.665022	6.769700e-07	2.000000e+00
126.064479	2946983.762119	6.786600e-07	2.000000e+00
127.089662	2945161.100312	6.790800e-07	2.000000e+00
128.112715	2938626.779706	6.805900e-07	2.000000e+00
129.136591	2924532.440376	6.838700e-07	2.000000e+00
130.161175	2917110.310526	6.856100e-07	2.000000e+00
131.185767	2898424.706172	6.900300e-07	2.000000e+00
132.209610	2887919.831345	6.925400e-07	2.000000e+00
133.233666	2876208.007363	6.953600e-07	2.000000e+00
134.258277	2863975.484370	6.983300e-07	2.000000e+00
135.282572	2850302.132026	7.016800e-07	2.000000e+00
136.306700	2834547.464497	7.055800e-07	2.000000e+00
137.330632	2825736.810873	7.077800e-07	2.000000e+00
138.355001	2817139.476575	7.099400e-07	2.000000e+00
139.378592	2809264.955824	7.119300e-07	2.000000e+00
140.402516	2802297.884265	7.137000e-07	2.000000e+00
141.426354	2796968.086594	7.150600e-07	2.000000e+00
142.450431	2791658.524329	7.164200e-07	2.000000e+00
143.474579	2781022.303799	7.191600e-07	2.000000e+00
144.498378	2776235.424764	7.204000e-07	2.000000e+00
145.521557	2765180.842827	7.232800e-07	2.000000e+00
146.546103	2755048.626608	7.259400e-07	2.000000e+00
147.570760	2745367.192862	7.285000e-07	2.000000e+00
148.594633	2735566.467426	7.311100e-07	2.000000e+00
149.619640	2727545.481821	7.332600e-07	2.000000e+00
150.643804	2720940.356987	7.350400e-07	2.000000e+00
151.667788	2715472.763808	7.365200e-07	2.000000e+00
152.691756	2708082.271539	7.385300e-07	2.000000e+00
153.716925	2705225.142362	7.393100e-07	2.000000e+00
154.740976	2700039.150568	7.407300e-07	2.000000e+00
155.765744	2693203.700462	7.426100e-07	2.000000e+00
156.789686	2681432.421199	7.458700e-07	2.000000e+00
157.813544	2675871.665195	7.474200e-07	2.000000e+00
158.838015	2672189.190995	7.484500e-07	2.000000e+00
159.862670	2668766.095996	7.494100e-07	2.000000e+00
160.885784	2661237.741674	7.515300e-07	2.000000e+00
161.909577	2656148.319322	7.529700e-07	2.000000e+00
162.934033	2647919.397334	7.553100e-07	2.000000e+00
163.958472	2647779.175217	7.553500e-07	2.000000e+00
164.982321	2644733.014202	7.562200e-07	2.000000e+00
166.005876	2635080.831104	7.589900e-07	2.000000e+00
167.029839	2624361.952000	7.620900e-07	2.000000e+00
168.054514	2616260.056250	7.644500e-07	2.000000e+00
169.078671	2609296.924944	7.664900e-07	2.000000e+00
170.102614	2602235.320140	7.685700e-07	2.000000e+00
171.126858	2592318.958925	7.715100e-07	2.000000e+00
172.151565	2585181.738276	7.736400e-07	2.000000e+00
173.175513	2589466.052100	7.723600e-07	2.000000e+00
174.199541	2584146.262678	7.739500e-07	2.000000e+00
175.224832	2571751.877379	7.776800e-07	2.000000e+00
176.249456	2564529.985767	7.798700e-07	2.000000e+00
177.272930	2554408.909778	7.829600e-07	2.000000e+00
178.297346	2547413.738202	7.851100e-07	2.000000e+00
179.321087	2540618.132392	7.872100e-07	2.000000e+00
180.344914	2539940.565391	7.874200e-07	2.000000e+00
181.368643	2537459.242061	7.881900e-07	2.000000e+00
182.392781	2532671.461858	7.896800e-07	2.000000e+00
183.417323	2525443.846756	7.919400e-07	2.000000e+00
184.441636	2518733.077262	7.940500e-07	2.000000e+00
185.466876	2511616.225041	7.963000e-07	2.000000e+00
186.491549	2500875.306357	7.997200e-07	2.000000e+00
187.515927	2493361.425205	8.021300e-07	2.000000e+00
188.542015	2484194.313679	8.050900e-07	2.000000e+00
189.566876	2473686.163436	8.085100e-07	2.000000e+00
190.590844	2467308.166790	8.106000e-07	2.000000e+00
191.614649	2462356.721618	8.122300e-07	2.000000e+00
192.639245	2457455.305032	8.138500e-07	2.000000e+00
193.663804	2454349.106617	8.148800e-07	2.000000e+00
194.687458	2451761.590703	8.157400e-07	2.000000e+00
195.710993	2449389.489670	8.165300e-07	2.000000e+00
196.735786	2445436.204683	8.178500e-07	2.000000e+00
197.759897	2443464.343747	8.185100e-07	2.000000e+00
198.783737	2440780.561624	8.194100e-07	2.000000e+00
199.808521	2438667.512071	8.201200e-07	2.000000e+00
200.832246	2435252.718351	8.212700e-07	2.000000e+00
201.856888	2430635.732776	8.228300e-07	2.000000e+00
202.880721	2429661.305214	8.231600e-07	2.000000e+00
203.904809	2422803.425844	8.254900e-07	2.000000e+00
204.928979	2413040.068530	8.288300e-07	2.000000e+00
205.953538	2405638.817388	8.313800e-07	2.000000e+00
206.978793	2404019.520639	8.319400e-07	2.000000e+00
208.003719	2401133.334934	8.329400e-07	2.000000e+00
209.028241	2401421.641612	8.328400e-07	2.000000e+00
210.052816	2402200.415581	8.325700e-07	2.000000e+00
211.077964	2392172.810564	8.360600e-07	2.000000e+00
212.101846	2382001.595941	8.396300e-07	2.000000e+00
213.125757	2377555.872563	8.412000e-07	2.000000e+00
214.149675	2369050.721376	8.442200e-07	2.000000e+00
215.175526	2363563.308043	8.461800e-07	2.000000e+00
216.198864	2359826.316783	8.475200e-07	2.000000e+00
217.222852	2352968.858457	8.499900e-07	2.000000e+00
218.247936	2350341.974757	8.509400e-07	2.000000e+00
219.272796	2346977.093504	8.521600e-07	2.000000e+00
220.296834	2343237.416815	8.535200e-07	2.000000e+00
221.320744	2343045.255919	8.535900e-07	2.000000e+00
222.345383	2337704.841387	8.555400e-07	2.000000e+00
223.369951	2332035.167090	8.576200e-07	2.000000e+00
224.393910	2324905.550712	8.602500e-07	2.000000e+00
225.418060	2316691.764161	8.633000e-07	2.000000e+00
226.442494	2310536.044362	8.656000e-07	2.000000e+00
227.466778	2308589.105768	8.663300e-07	2.000000e+00
228.490629	2313181.665722	8.646100e-07	2.000000e+00
229.514048	2320347.123930	8.619400e-07	2.000000e+00
230.538715	2310616.125790	8.655700e-07	2.000000e+00
231.562833	2309095.527282	8.661400e-07	2.000000e+00
232.586598	2303616.678185	8.682000e-07	2.000000e+00
233.610790	2291659.505231	8.727300e-07	2.000000e+00
234.635907	2291396.950151	8.728300e-07	2.000000e+00
235.660784	2288093.903374	8.740900e-07	2.000000e+00
236.684950	2285244.178340	8.751800e-07	2.000000e+00
237.709082	2280189.711784	8.771200e-07	2.000000e+00
238.734426	2273657.405302	8.796400e-07	2.000000e+00
239.760587	2270018.727655	8.810500e-07	2.000000e+00
240.788025	2265339.177908	8.828700e-07	2.000000e+00
241.812101	2258891.561911	8.853900e-07	2.000000e+00
242.836145	2256470.428955	8.863400e-07	2.000000e+00
243.860400	2253952.869845	8.873300e-07	2.000000e+00
244.885009	2251010.140801	8.884900e-07	2.000000e+00
245.908824	2248024.548428	8.896700e-07	2.000000e+00
246.933912	2243133.208466	8.916100e-07	2.000000e+00
247.959232	2243057.736306	8.916400e-07	2.000000e+00
248.981691	2242353.574312	8.919200e-07	2.000000e+00
250.004957	2235835.979073	8.945200e-07	2.000000e+00
251.029021	2229704.118264	8.969800e-07	2.000000e+00
252.053379	2223754.141742	8.993800e-07	2.000000e+00
253.077606	2220199.373904	9.008200e-07	2.000000e+00
254.102099	2215722.768767	9.026400e-07	2.000000e+00
255.126140	2208431.792584	9.056200e-07	2.000000e+00
256.150598	2201479.394153	9.084800e-07	2.000000e+00
257.175697	2202424.869782	9.080900e-07	2.000000e+00
258.200276	2202327.860549	9.081300e-07	2.000000e+00
259.224074	2203225.522164	9.077600e-07	2.000000e+00
260.248528	2200510.518440	9.088800e-07	2.000000e+00
261.272753	2196281.695090	9.106300e-07	2.000000e+00
262.297037	2189405.466945	9.134900e-07	2.000000e+00
263.320813	2185768.461547	9.150100e-07	2.000000e+00
264.344763	2180050.359163	9.174100e-07	2.000000e+00
265.368780	2176965.527751	9.187100e-07	2.000000e+00
266.392112	2175473.709400	9.193400e-07	2.000000e+00
267.416106	2184622.442626	9.154900e-07	2.000000e+00
268.440675	2173794.902451	9.200500e-07	2.000000e+00
269.464999	2166143.182064	9.233000e-07	2.000000e+00
270.488792	2159640.635798	9.260800e-07	2.000000e+00
271.512291	2156659.765355	9.273600e-07	2.000000e+00
272.537527	2151578.720886	9.295500e-07	2.000000e+00
273.562957	2143852.502948	9.329000e-07	2.000000e+00
274.587141	2136044.686055	9.363100e-07	2.000000e+00
275.610961	2127750.117026	9.399600e-07	2.000000e+00
276.635210	2122871.820999	9.421200e-07	2.000000e+00
277.660531	2119452.333517	9.436400e-07	2.000000e+00
278.685104	2117567.338641	9.444800e-07	2.000000e+00
279.709020	2115640.933421	9.453400e-07	2.000000e+00
280.733150	2116536.499672	9.449400e-07	2.000000e+00
281.758142	2116693.301724	9.448700e-07	2.000000e+00
282.783142	2114634.326859	9.457900e-07	2.000000e+00
283.807009	2110973.897808	9.474300e-07	2.000000e+00
284.830927	2108414.683000	9.485800e-07	2.000000e+00
285.855798	2105684.294754	9.498100e-07	2.000000e+00
286.880316	2108392.456172	9.485900e-07	2.000000e+00
287.904199	2102540.920703	9.512300e-07	2.000000e+00
288.928089	2097469.403165	9.535300e-07	2.000000e+00
289.952840	2094789.211836	9.547500e-07	2.000000e+00
290.978167	2091809.519825	9.561100e-07	2.000000e+00
292.002215	2084440.692451	9.594900e-07	2.000000e+00
293.026169	2077727.796881	9.625900e-07	2.000000e+00
294.050508	2077706.212342	9.626000e-07	2.000000e+00
295.075304	2084028.009336	9.596800e-07	2.000000e+00
296.098796	2072775.134989	9.648900e-07	2.000000e+00
297.122767	2069472.181120	9.664300e-07	2.000000e+00
298.147704	2064857.163506	9.685900e-07	2.000000e+00
299.171953	2058968.868391	9.713600e-07	2.000000e+00
300.195900	2052671.552025	9.743400e-07	2.000000e+00
301.219134	2049159.332384	9.760100e-07	2.000000e+00
302.243618	2044028.371114	9.784600e-07	2.000000e+00
303.267356	2044299.980579	9.783300e-07	2.000000e+00
304.292190	2042066.571370	9.794000e-07	2.000000e+00
305.317231	2037427.543983	9.816300e-07	2.000000e+00
306.340960	2034277.577175	9.831500e-07	2.000000e+00
307.364797	2033119.516931	9.837100e-07	2.000000e+00
308.389939	2029303.137303	9.855600e-07	2.000000e+00
309.413273	2029179.602687	9.856200e-07	2.000000e+00
310.437463	2030147.693245	9.851500e-07	2.000000e+00
311.462047	2026014.020017	9.871600e-07	2.000000e+00
312.486260	2021141.136286	9.895400e-07	2.000000e+00
313.510125	2015235.177945	9.924400e-07	2.000000e+00
314.534125	2011809.320713	9.941300e-07	2.000000e+00
315.558033	2007346.889616	9.963400e-07	2.000000e+00
316.582978	2004168.670835	9.979200e-07	2.000000e+00
317.606923	2001601.281025	9.992000e-07	2.000000e+00
318.630284	2014910.336490	9.926000e-07	2.000000e+00
319.657430	2004008.016032	9.980000e-07	2.000000e+00
320.683030	2004811.547715	9.976000e-07	2.000000e+00
321.707152	1999200.319872	1.000400e-06	2.000000e+00
322.731167	1993819.160602	1.003100e-06	2.000000e+00
323.755643	1989653.800239	1.005200e-06	2.000000e+00
324.780276	1994017.946162	1.003000e-06	2.000000e+00
325.804238	1996805.111821	1.001600e-06	2.000000e+00
326.828170	1984914.648670	1.007600e-06	2.000000e+00
327.852793	1979610.016827	1.010300e-06	2.000000e+00
328.877222	1978435.057869	1.010900e-06	2.000000e+00
329.900568	1971608.832808	1.014400e-06	2.000000e+00
330.924207	1966761.726817	1.016900e-06	2.000000e+00
331.948345	1959823.615875	1.020500e-06	2.000000e+00
332.972826	1956755.699051	1.022100e-06	2.000000e+00
333.996329	1951790.768030	1.024700e-06	2.000000e+00
335.020244	1953697.372277	1.023700e-06	2.000000e+00
336.044601	1951600.312256	1.024800e-06	2.000000e+00
337.068936	1950268.161872	1.025500e-06	2.000000e+00
338.092495	1947798.987145	1.026800e-06	2.000000e+00
339.116265	1944768.572540	1.028400e-06	2.000000e+00
340.140856	1940805.434255	1.030500e-06	2.000000e+00
341.166257	1936108.422072	1.033000e-06	2.000000e+00
342.190376	1931807.205641	1.035300e-06	2.000000e+00
343.214350	1929570.670526	1.036500e-06	2.000000e+00
344.238797	1926596.666988	1.038100e-06	2.000000e+00
345.263008	1923631.816870	1.039700e-06	2.000000e+00
346.286451	1921598.770177	1.040800e-06	2.000000e+00
347.310236	1919938.561966	1.041700e-06	2.000000e+00
348.334302	1919201.612129	1.042100e-06	2.000000e+00
349.358172	1918833.349324	1.042300e-06	2.000000e+00
350.381345	1920122.887865	1.041600e-06	2.000000e+00
351.406215	1917913.310318	1.042800e-06	2.000000e+00
352.430223	1914975.105324	1.044400e-06	2.000000e+00
353.454456	1912411.550966	1.045800e-06	2.000000e+00
354.479040	1914425.193836	1.044700e-06	2.000000e+00
355.502369	1911132.345915	1.046500e-06	2.000000e+00
356.527560	1907304.978066	1.048600e-06	2.000000e+00
357.551424	1902044.698050	1.051500e-06	2.000000e+00
358.575380	1899876.508027	1.052700e-06	2.000000e+00
359.599431	1896633.475581	1.054500e-06	2.000000e+00
360.623298	1892863.903085	1.056600e-06	2.000000e+00
361.648147	1885191.818268	1.060900e-06	2.000000e+00
362.673063	1879169.407122	1.064300e-06	2.000000e+00
363.697427	1873185.351691	1.067700e-06	2.000000e+00
364.721799	1867936.863734	1.070700e-06	2.000000e+00
365.746154	1864801.864802	1.072500e-06	2.000000e+00
366.770391	1862544.235426	1.073800e-06	2.000000e+00
367.794172	1857010.213556	1.077000e-06	2.000000e+00
368.818690	1859254.438970	1.075700e-06	2.000000e+00
369.843227	1854943.424226	1.078200e-06	2.000000e+00
370.867575	1857700.167193	1.076600e-06	2.000000e+00
371.891526	1858045.336306	1.076400e-06	2.000000e+00
372.915660	1859600.185960	1.075500e-06	2.000000e+00
373.940204	1857872.735718	1.076500e-06	2.000000e+00
374.965715	1859254.438970	1.075700e-06	2.000000e+00
375.991093	1855804.027095	1.077700e-06	2.000000e+00
377.014475	1854255.516410	1.078600e-06	2.000000e+00
378.039254	1854771.399425	1.078300e-06	2.000000e+00
379.063275	1852537.977029	1.079600e-06	2.000000e+00
380.087214	1849967.625567	1.081100e-06	2.000000e+00
381.111150	1846210.652635	1.083300e-06	2.000000e+00
382.136045	1841620.626151	1.086000e-06	2.000000e+00
383.160455	1835535.976505	1.089600e-06	2.000000e+00
384.184454	1829156.758734	1.093400e-06	2.000000e+00
385.208410	1823154.056518	1.097000e-06	2.000000e+00
386.233205	1819339.579733	1.099300e-06	2.000000e+00
387.258029	1813894.431344	1.102600e-06	2.000000e+00
388.281784	1812415.043045	1.103500e-06	2.000000e+00
389.306180	1811594.202899	1.104000e-06	2.000000e+00
390.329869	1810610.175629	1.104600e-06	2.000000e+00
391.354162	1808808.899340	1.105700e-06	2.000000e+00
392.377659	1806684.733514	1.107000e-06	2.000000e+00
393.402506	1803589.142393	1.108900e-06	2.000000e+00
394.426390	1804891.255302	1.108100e-06	2.000000e+00
395.451350	1803751.803752	1.108800e-06	2.000000e+00
