Time	SourceV	Current	Voltage
1.029409	6100899.491592	1.278500e-06	7.800000e+00
2.073755	5258190.643117	1.483400e-06	7.800000e+00
3.101082	4784395.510029	1.630300e-06	7.800000e+00
4.127884	4414011.657518	1.767100e-06	7.800000e+00
5.156628	4051527.114066	1.925200e-06	7.800000e+00
6.186451	3719244.707229	2.097200e-06	7.800000e+00
7.214118	3433098.591549	2.272000e-06	7.800000e+00
8.241665	3193187.865886	2.442700e-06	7.800000e+00
9.265496	2984731.948112	2.613300e-06	7.800000e+00
10.289426	2806058.207720	2.779700e-06	7.800000e+00
11.314066	2652339.499456	2.940800e-06	7.800000e+00
12.339508	2521905.008245	3.092900e-06	7.800000e+00
13.363611	2411948.421411	3.233900e-06	7.800000e+00
14.388518	2315570.728811	3.368500e-06	7.800000e+00
15.412997	2235277.260352	3.489500e-06	7.800000e+00
16.437009	2166726.853524	3.599900e-06	7.800000e+00
17.460738	2104979.085144	3.705500e-06	7.800000e+00
18.485437	2050095.933976	3.804700e-06	7.800000e+00
19.511518	2005192.935551	3.889900e-06	7.800000e+00
20.538048	1963746.223565	3.972000e-06	7.800000e+00
21.562873	1926687.086256	4.048400e-06	7.800000e+00
22.586580	1894307.363513	4.117600e-06	7.800000e+00
23.610555	1865671.641791	4.180800e-06	7.800000e+00
24.635227	1841707.593502	4.235200e-06	7.800000e+00
25.659797	1818945.011893	4.288200e-06	7.800000e+00
26.683836	1800554.016620	4.332000e-06	7.800000e+00
27.707739	1780293.520188	4.381300e-06	7.800000e+00
28.732408	1761875.719997	4.427100e-06	7.800000e+00
29.756939	1747350.971124	4.463900e-06	7.800000e+00
30.780889	1730218.939243	4.508100e-06	7.800000e+00
31.804761	1718780.987638	4.538100e-06	7.800000e+00
32.829206	1706895.419831	4.569700e-06	7.800000e+00
33.854436	1697497.279652	4.595000e-06	7.800000e+00
34.878883	1688640.644281	4.619100e-06	7.800000e+00
35.902842	1678755.138497	4.646300e-06	7.800000e+00
36.927877	1667022.868134	4.679000e-06	7.800000e+00
37.952781	1660245.631213	4.698100e-06	7.800000e+00
38.977775	1652612.398830	4.719800e-06	7.800000e+00
40.001769	1647829.301785	4.733500e-06	7.800000e+00
41.025699	1642796.967144	4.748000e-06	7.800000e+00
42.049429	1641794.186365	4.750900e-06	7.800000e+00
43.073568	1635803.116415	4.768300e-06	7.800000e+00
44.097502	1630128.111350	4.784900e-06	7.800000e+00
45.121531	1625846.795206	4.797500e-06	7.800000e+00
46.145639	1623072.601286	4.805700e-06	7.800000e+00
47.169695	1621015.004780	4.811800e-06	7.800000e+00
48.193889	1617015.983581	4.823700e-06	7.800000e+00
49.217831	1611270.631494	4.840900e-06	7.800000e+00
50.241970	1606425.702811	4.855500e-06	7.800000e+00
51.266893	1600623.832878	4.873100e-06	7.800000e+00
52.290796	1593072.178424	4.896200e-06	7.800000e+00
53.314791	1589857.524306	4.906100e-06	7.800000e+00
54.338680	1587883.229510	4.912200e-06	7.800000e+00
55.362786	1583499.127045	4.925800e-06	7.800000e+00
56.387020	1577797.556437	4.943600e-06	7.800000e+00
57.410837	1573722.863369	4.956400e-06	7.800000e+00
58.438547	1568658.997667	4.972400e-06	7.800000e+00
59.463735	1564380.264741	4.986000e-06	7.800000e+00
60.487802	1559500.959693	5.001600e-06	7.800000e+00
61.511689	1555054.925337	5.015900e-06	7.800000e+00
62.536038	1552578.673939	5.023900e-06	7.800000e+00
63.561667	1549586.776860	5.033600e-06	7.800000e+00
64.585518	1546422.411229	5.043900e-06	7.800000e+00
65.610091	1547680.463510	5.039800e-06	7.800000e+00
66.634806	1547956.895354	5.038900e-06	7.800000e+00
67.659043	1549032.847440	5.035400e-06	7.800000e+00
68.683333	1549432.867841	5.034100e-06	7.800000e+00
69.710200	1547127.895906	5.041600e-06	7.800000e+00
70.737008	1542843.579397	5.055600e-06	7.800000e+00
71.761764	1536764.126409	5.075600e-06	7.800000e+00
72.786743	1528572.548405	5.102800e-06	7.800000e+00
73.810164	1524151.946225	5.117600e-06	7.800000e+00
74.834755	1521565.261495	5.126300e-06	7.800000e+00
75.859070	1516919.486581	5.142000e-06	7.800000e+00
76.882995	1511159.330440	5.161600e-06	7.800000e+00
77.906867	1510661.786067	5.163300e-06	7.800000e+00
78.930639	1514710.166036	5.149500e-06	7.800000e+00
79.953996	1516536.076060	5.143300e-06	7.800000e+00
80.978846	1510281.531968	5.164600e-06	7.800000e+00
82.002982	1503672.430744	5.187300e-06	7.800000e+00
83.026945	1495886.312640	5.214300e-06	7.800000e+00
84.051052	1489317.014492	5.237300e-06	7.800000e+00
85.074996	1482326.111745	5.262000e-06	7.800000e+00
86.098936	1476853.166714	5.281500e-06	7.800000e+00
87.123123	1477048.931980	5.280800e-06	7.800000e+00
88.147599	1473004.362359	5.295300e-06	7.800000e+00
89.172021	1471559.286860	5.300500e-06	7.800000e+00
90.196691	1469923.111714	5.306400e-06	7.800000e+00
91.220859	1467103.035775	5.316600e-06	7.800000e+00
92.245917	1465036.344171	5.324100e-06	7.800000e+00
93.270676	1457126.844760	5.353000e-06	7.800000e+00
94.294775	1454436.965075	5.362900e-06	7.800000e+00
95.318660	1450326.323423	5.378100e-06	7.800000e+00
96.342690	1445943.941866	5.394400e-06	7.800000e+00
97.366630	1450865.869310	5.376100e-06	7.800000e+00
98.391154	1451919.139273	5.372200e-06	7.800000e+00
99.416057	1450919.845979	5.375900e-06	7.800000e+00
100.440521	1437523.037228	5.426000e-06	7.800000e+00
101.467632	1426846.668862	5.466600e-06	7.800000e+00
102.492708	1418156.033527	5.500100e-06	7.800000e+00
103.516658	1410819.903413	5.528700e-06	7.800000e+00
104.541169	1406596.577282	5.545300e-06	7.800000e+00
105.565760	1403609.796477	5.557100e-06	7.800000e+00
106.590186	1398952.579095	5.575600e-06	7.800000e+00
107.613967	1395823.267300	5.588100e-06	7.800000e+00
108.637842	1394126.794045	5.594900e-06	7.800000e+00
109.661240	1392583.599650	5.601100e-06	7.800000e+00
110.686752	1391068.626052	5.607200e-06	7.800000e+00
111.712117	1390820.584145	5.608200e-06	7.800000e+00
112.736807	1388048.546108	5.619400e-06	7.800000e+00
113.762848	1386026.014642	5.627600e-06	7.800000e+00
114.787875	1382586.500284	5.641600e-06	7.800000e+00
115.812174	1380408.813379	5.650500e-06	7.800000e+00
116.836352	1373795.727143	5.677700e-06	7.800000e+00
117.860161	1367485.404723	5.703900e-06	7.800000e+00
118.884884	1364399.664148	5.716800e-06	7.800000e+00
119.909199	1360971.524288	5.731200e-06	7.800000e+00
120.933445	1351796.329353	5.770100e-06	7.800000e+00
121.957910	1345987.920621	5.795000e-06	7.800000e+00
122.982035	1343345.274180	5.806400e-06	7.800000e+00
124.007033	1342744.017903	5.809000e-06	7.800000e+00
125.030896	1343391.546967	5.806200e-06	7.800000e+00
126.054941	1340114.081506	5.820400e-06	7.800000e+00
127.079332	1338068.035613	5.829300e-06	7.800000e+00
128.104786	1333219.382959	5.850500e-06	7.800000e+00
129.128197	1331058.020478	5.860000e-06	7.800000e+00
130.152104	1328745.187557	5.870200e-06	7.800000e+00
131.176647	1326553.172673	5.879900e-06	7.800000e+00
132.200049	1323806.452708	5.892100e-06	7.800000e+00
133.224091	1325493.661421	5.884600e-06	7.800000e+00
134.248061	1321787.463354	5.901100e-06	7.800000e+00
135.272547	1319060.423114	5.913300e-06	7.800000e+00
136.296984	1315900.463939	5.927500e-06	7.800000e+00
137.321052	1309647.738339	5.955800e-06	7.800000e+00
138.347256	1300932.334840	5.995700e-06	7.800000e+00
139.372844	1292096.675336	6.036700e-06	7.800000e+00
140.398601	1286279.683377	6.064000e-06	7.800000e+00
141.423285	1280619.951402	6.090800e-06	7.800000e+00
142.447037	1276303.302026	6.111400e-06	7.800000e+00
143.470799	1273219.940583	6.126200e-06	7.800000e+00
144.495607	1269324.654190	6.145000e-06	7.800000e+00
145.520087	1271911.944558	6.132500e-06	7.800000e+00
146.544136	1279212.792128	6.097500e-06	7.800000e+00
147.568970	1280830.240730	6.089800e-06	7.800000e+00
148.593418	1286194.842029	6.064400e-06	7.800000e+00
149.617843	1276992.845566	6.108100e-06	7.800000e+00
150.642397	1269448.603607	6.144400e-06	7.800000e+00
151.667255	1266624.445852	6.158100e-06	7.800000e+00
152.691703	1261584.744529	6.182700e-06	7.800000e+00
153.715964	1258044.225093	6.200100e-06	7.800000e+00
154.740332	1255290.728551	6.213700e-06	7.800000e+00
155.764294	1249499.399279	6.242500e-06	7.800000e+00
156.789040	1246026.294350	6.259900e-06	7.800000e+00
157.813196	1242394.316842	6.278200e-06	7.800000e+00
158.838277	1235017.496081	6.315700e-06	7.800000e+00
159.862053	1231935.560294	6.331500e-06	7.800000e+00
160.886010	1227032.469167	6.356800e-06	7.800000e+00
161.909279	1223932.589559	6.372900e-06	7.800000e+00
162.933030	1219855.494041	6.394200e-06	7.800000e+00
163.956399	1214593.811800	6.421900e-06	7.800000e+00
164.980332	1211104.900317	6.440400e-06	7.800000e+00
166.004174	1207841.679829	6.457800e-06	7.800000e+00
167.029391	1205321.960039	6.471300e-06	7.800000e+00
168.053043	1203035.350731	6.483600e-06	7.800000e+00
169.077121	1200628.020811	6.496600e-06	7.800000e+00
170.100962	1197991.061144	6.510900e-06	7.800000e+00
171.126125	1197733.519647	6.512300e-06	7.800000e+00
172.150208	1195988.837438	6.521800e-06	7.800000e+00
173.174236	1195310.704161	6.525500e-06	7.800000e+00
174.200228	1191239.805736	6.547800e-06	7.800000e+00
175.225360	1188698.223049	6.561800e-06	7.800000e+00
176.249187	1186131.386861	6.576000e-06	7.800000e+00
177.273154	1184798.128627	6.583400e-06	7.800000e+00
178.297710	1180637.544274	6.606600e-06	7.800000e+00
179.322371	1179316.601149	6.614000e-06	7.800000e+00
180.346260	1176027.139088	6.632500e-06	7.800000e+00
181.369994	1172932.330827	6.650000e-06	7.800000e+00
182.395063	1169608.181259	6.668900e-06	7.800000e+00
183.419484	1166459.794524	6.686900e-06	7.800000e+00
184.444255	1163241.566499	6.705400e-06	7.800000e+00
185.468400	1160213.598298	6.722900e-06	7.800000e+00
186.492907	1156155.043356	6.746500e-06	7.800000e+00
187.517337	1151937.618147	6.771200e-06	7.800000e+00
188.541210	1148274.643740	6.792800e-06	7.800000e+00
189.565464	1145155.843965	6.811300e-06	7.800000e+00
190.589358	1142589.283098	6.826600e-06	7.800000e+00
191.615108	1139800.973215	6.843300e-06	7.800000e+00
192.643246	1136794.240243	6.861400e-06	7.800000e+00
193.667009	1134892.112500	6.872900e-06	7.800000e+00
194.691184	1133506.750178	6.881300e-06	7.800000e+00
195.715930	1131615.598886	6.892800e-06	7.800000e+00
196.741039	1132552.162739	6.887100e-06	7.800000e+00
197.764319	1131320.163606	6.894600e-06	7.800000e+00
198.788063	1127558.690875	6.917600e-06	7.800000e+00
199.812722	1126858.232566	6.921900e-06	7.800000e+00
200.837142	1124113.679599	6.938800e-06	7.800000e+00
201.861488	1120222.895633	6.962900e-06	7.800000e+00
202.885451	1115768.091894	6.990700e-06	7.800000e+00
203.909547	1113124.884049	7.007300e-06	7.800000e+00
204.934273	1110051.660096	7.026700e-06	7.800000e+00
205.958076	1108868.101561	7.034200e-06	7.800000e+00
206.981406	1106869.687380	7.046900e-06	7.800000e+00
208.005621	1104299.689947	7.063300e-06	7.800000e+00
209.030518	1099505.222650	7.094100e-06	7.800000e+00
210.055111	1096198.440025	7.115500e-06	7.800000e+00
211.078543	1094859.773729	7.124200e-06	7.800000e+00
212.103334	1091687.777296	7.144900e-06	7.800000e+00
213.127292	1090238.175109	7.154400e-06	7.800000e+00
214.151261	1090390.583499	7.153400e-06	7.800000e+00
215.175181	1088914.017674	7.163100e-06	7.800000e+00
216.199208	1085398.605680	7.186300e-06	7.800000e+00
217.223396	1083920.456914	7.196100e-06	7.800000e+00
218.247437	1082867.098888	7.203100e-06	7.800000e+00
219.271307	1082852.065749	7.203200e-06	7.800000e+00
220.295864	1081335.865693	7.213300e-06	7.800000e+00
221.320248	1078152.212977	7.234600e-06	7.800000e+00
222.344307	1074380.165289	7.260000e-06	7.800000e+00
223.368547	1072312.345340	7.274000e-06	7.800000e+00
224.393106	1069342.765485	7.294200e-06	7.800000e+00
225.417377	1066068.939125	7.316600e-06	7.800000e+00
226.441272	1063510.676011	7.334200e-06	7.800000e+00
227.464655	1061484.445170	7.348200e-06	7.800000e+00
228.488743	1059221.336520	7.363900e-06	7.800000e+00
229.512432	1056323.722593	7.384100e-06	7.800000e+00
230.536153	1053441.918885	7.404300e-06	7.800000e+00
231.559586	1051156.271899	7.420400e-06	7.800000e+00
232.583933	1048767.697955	7.437300e-06	7.800000e+00
233.608474	1047598.581713	7.445600e-06	7.800000e+00
234.632346	1046825.300962	7.451100e-06	7.800000e+00
235.657556	1045226.130653	7.462500e-06	7.800000e+00
236.682064	1042599.548207	7.481300e-06	7.800000e+00
237.706517	1039653.448850	7.502500e-06	7.800000e+00
238.730553	1040041.601664	7.499700e-06	7.800000e+00
239.754657	1040069.337956	7.499500e-06	7.800000e+00
240.778798	1038172.815844	7.513200e-06	7.800000e+00
241.802620	1035829.061645	7.530200e-06	7.800000e+00
242.826235	1032702.237522	7.553000e-06	7.800000e+00
243.849486	1031118.631521	7.564600e-06	7.800000e+00
244.874039	1030178.960576	7.571500e-06	7.800000e+00
245.898340	1027993.041278	7.587600e-06	7.800000e+00
246.922242	1024684.384073	7.612100e-06	7.800000e+00
247.945364	1021597.621511	7.635100e-06	7.800000e+00
248.969666	1019634.500248	7.649800e-06	7.800000e+00
249.993521	1016975.670813	7.669800e-06	7.800000e+00
251.017568	1015439.893769	7.681400e-06	7.800000e+00
252.042390	1012395.353365	7.704500e-06	7.800000e+00
253.067442	1009891.760319	7.723600e-06	7.800000e+00
254.091585	1006919.343179	7.746400e-06	7.800000e+00
255.115238	1006230.891288	7.751700e-06	7.800000e+00
256.138609	1004895.645452	7.762000e-06	7.800000e+00
257.163828	1002557.807740	7.780100e-06	7.800000e+00
258.188606	1000834.028357	7.793500e-06	7.800000e+00
259.213297	999180.159869	7.806400e-06	7.800000e+00
260.237490	997429.700387	7.820100e-06	7.800000e+00
261.261435	995494.748127	7.835300e-06	7.800000e+00
262.285827	993263.635090	7.852900e-06	7.800000e+00
263.310424	990287.564273	7.876500e-06	7.800000e+00
264.334646	989558.885097	7.882300e-06	7.800000e+00
265.358477	988430.296656	7.891300e-06	7.800000e+00
266.385647	987679.333443	7.897300e-06	7.800000e+00
267.410530	985632.510709	7.913700e-06	7.800000e+00
268.435552	983395.741140	7.931700e-06	7.800000e+00
269.459666	981613.621777	7.946100e-06	7.800000e+00
270.484033	979321.255038	7.964700e-06	7.800000e+00
271.508752	977027.331713	7.983400e-06	7.800000e+00
272.532774	975573.149225	7.995300e-06	7.800000e+00
273.557333	973636.908328	8.011200e-06	7.800000e+00
274.580791	971672.023320	8.027400e-06	7.800000e+00
275.605495	969004.285980	8.049500e-06	7.800000e+00
276.629383	966710.457824	8.068600e-06	7.800000e+00
277.653724	964141.357956	8.090100e-06	7.800000e+00
278.678159	962618.321835	8.102900e-06	7.800000e+00
279.702284	960165.443892	8.123600e-06	7.800000e+00
280.725608	959362.392994	8.130400e-06	7.800000e+00
281.749444	957783.835556	8.143800e-06	7.800000e+00
282.773945	956996.503282	8.150500e-06	7.800000e+00
283.797469	954864.299093	8.168700e-06	7.800000e+00
284.821338	954280.191345	8.173700e-06	7.800000e+00
285.844680	952671.755725	8.187500e-06	7.800000e+00
286.869742	951219.512195	8.200000e-06	7.800000e+00
287.895269	948858.936305	8.220400e-06	7.800000e+00
288.919359	948224.510388	8.225900e-06	7.800000e+00
289.943626	946624.918081	8.239800e-06	7.800000e+00
290.967829	944641.581185	8.257100e-06	7.800000e+00
291.992467	942017.608483	8.280100e-06	7.800000e+00
293.016902	940325.497288	8.295000e-06	7.800000e+00
294.040705	937443.663241	8.320500e-06	7.800000e+00
295.064903	935375.169387	8.338900e-06	7.800000e+00
296.088576	932579.299131	8.363900e-06	7.800000e+00
297.113559	931688.147255	8.371900e-06	7.800000e+00
298.137413	929445.549982	8.392100e-06	7.800000e+00
299.161404	926883.177070	8.415300e-06	7.800000e+00
300.185396	925255.928162	8.430100e-06	7.800000e+00
301.209306	923853.178410	8.442900e-06	7.800000e+00
302.234220	921082.153443	8.468300e-06	7.800000e+00
303.260124	919421.000519	8.483600e-06	7.800000e+00
304.285633	918057.484522	8.496200e-06	7.800000e+00
305.310597	916288.795433	8.512600e-06	7.800000e+00
306.334781	914580.524125	8.528500e-06	7.800000e+00
307.358840	913103.028458	8.542300e-06	7.800000e+00
308.383038	911896.745230	8.553600e-06	7.800000e+00
309.407613	909737.692299	8.573900e-06	7.800000e+00
310.431878	908572.027630	8.584900e-06	7.800000e+00
311.455651	906639.389994	8.603200e-06	7.800000e+00
312.480339	904693.969867	8.621700e-06	7.800000e+00
313.504603	903980.993220	8.628500e-06	7.800000e+00
314.527680	905334.509494	8.615600e-06	7.800000e+00
315.551605	904473.665901	8.623800e-06	7.800000e+00
316.575518	902986.802501	8.638000e-06	7.800000e+00
317.599799	902266.075952	8.644900e-06	7.800000e+00
318.625641	900173.110214	8.665000e-06	7.800000e+00
319.649788	898689.986520	8.679300e-06	7.800000e+00
320.674539	897490.478547	8.690900e-06	7.800000e+00
321.698725	895275.699004	8.712400e-06	7.800000e+00
322.722932	893521.965748	8.729500e-06	7.800000e+00
323.746888	891102.682448	8.753200e-06	7.800000e+00
324.770932	889233.435177	8.771600e-06	7.800000e+00
325.794872	887978.142077	8.784000e-06	7.800000e+00
326.820496	886494.595793	8.798700e-06	7.800000e+00
327.844740	886272.994807	8.800900e-06	7.800000e+00
328.867953	884163.275485	8.821900e-06	7.800000e+00
329.891807	882103.477523	8.842500e-06	7.800000e+00
330.916533	880858.272163	8.855000e-06	7.800000e+00
331.939688	880420.795991	8.859400e-06	7.800000e+00
332.964005	878388.270138	8.879900e-06	7.800000e+00
333.987744	877291.643235	8.891000e-06	7.800000e+00
335.011556	875302.989496	8.911200e-06	7.800000e+00
336.034920	873518.937443	8.929400e-06	7.800000e+00
337.059574	870924.519875	8.956000e-06	7.800000e+00
338.083779	870982.870670	8.955400e-06	7.800000e+00
339.107789	869138.883937	8.974400e-06	7.800000e+00
340.132957	867717.569056	8.989100e-06	7.800000e+00
341.157058	865627.913171	9.010800e-06	7.800000e+00
342.180938	863691.728491	9.031000e-06	7.800000e+00
343.205875	861897.500497	9.049800e-06	7.800000e+00
344.229802	860234.027770	9.067300e-06	7.800000e+00
345.253772	858189.659915	9.088900e-06	7.800000e+00
346.279559	856898.029135	9.102600e-06	7.800000e+00
347.303763	856653.340948	9.105200e-06	7.800000e+00
348.327736	855197.517734	9.120700e-06	7.800000e+00
349.351691	853746.634268	9.136200e-06	7.800000e+00
350.376965	853074.348711	9.143400e-06	7.800000e+00
351.402656	851054.543867	9.165100e-06	7.800000e+00
352.425927	850544.130155	9.170600e-06	7.800000e+00
353.450786	849238.407351	9.184700e-06	7.800000e+00
354.474948	847964.342012	9.198500e-06	7.800000e+00
355.499613	851667.849539	9.158500e-06	7.800000e+00
356.523876	857340.704998	9.097900e-06	7.800000e+00
357.547860	854438.699500	9.128800e-06	7.800000e+00
358.572637	850201.105261	9.174300e-06	7.800000e+00
359.596969	846611.383667	9.213200e-06	7.800000e+00
360.620773	847236.704901	9.206400e-06	7.800000e+00
361.644698	842815.002107	9.254700e-06	7.800000e+00
362.669371	839630.562552	9.289800e-06	7.800000e+00
363.693890	835842.647264	9.331900e-06	7.800000e+00
364.717896	836945.791665	9.319600e-06	7.800000e+00
365.741845	835305.582626	9.337900e-06	7.800000e+00
366.765667	830971.810879	9.386600e-06	7.800000e+00
367.789818	828183.729375	9.418200e-06	7.800000e+00
368.813063	826244.928657	9.440300e-06	7.800000e+00
369.836826	824123.576274	9.464600e-06	7.800000e+00
370.861232	822984.479357	9.477700e-06	7.800000e+00
371.885000	822082.397951	9.488100e-06	7.800000e+00
372.908606	820068.549320	9.511400e-06	7.800000e+00
373.932062	818760.103290	9.526600e-06	7.800000e+00
374.956125	817747.211272	9.538400e-06	7.800000e+00
375.980708	816249.646815	9.555900e-06	7.800000e+00
377.005695	814927.805755	9.571400e-06	7.800000e+00
378.029718	813644.187138	9.586500e-06	7.800000e+00
379.054646	810861.384286	9.619400e-06	7.800000e+00
380.078760	810162.344070	9.627700e-06	7.800000e+00
381.102772	808558.278393	9.646800e-06	7.800000e+00
382.126880	807453.416149	9.660000e-06	7.800000e+00
383.151418	805427.341160	9.684300e-06	7.800000e+00
384.175707	803485.892642	9.707700e-06	7.800000e+00
385.199577	800730.923612	9.741100e-06	7.800000e+00
386.223696	798861.110827	9.763900e-06	7.800000e+00
387.248299	796503.553631	9.792800e-06	7.800000e+00
388.272196	795009.784736	9.811200e-06	7.800000e+00
389.296009	793287.566743	9.832500e-06	7.800000e+00
390.321084	791307.788295	9.857100e-06	7.800000e+00
391.346765	789937.412651	9.874200e-06	7.800000e+00
392.374814	788994.537730	9.886000e-06	7.800000e+00
393.400706	787998.181543	9.898500e-06	7.800000e+00
394.424663	787036.102759	9.910600e-06	7.800000e+00
395.447894	785688.383899	9.927600e-06	7.800000e+00
396.472290	784913.558879	9.937400e-06	7.800000e+00
397.496930	784353.160038	9.944500e-06	7.800000e+00
