Time	SourceV	Current	Voltage
1.029812	12489485.891979	7.846600e-07	9.800000e+00
2.073813	10003164.266247	9.796900e-07	9.800000e+00
3.100883	8223546.194512	1.191700e-06	9.800000e+00
4.128544	6860823.298796	1.428400e-06	9.800000e+00
5.156132	5844814.218405	1.676700e-06	9.800000e+00
6.185059	5040115.202633	1.944400e-06	9.800000e+00
7.209748	4407267.494154	2.223600e-06	9.800000e+00
8.233782	3913425.445252	2.504200e-06	9.800000e+00
9.258071	3506763.043012	2.794600e-06	9.800000e+00
10.282574	3183678.773309	3.078200e-06	9.800000e+00
11.306988	2918664.562051	3.357700e-06	9.800000e+00
12.333014	2700542.864229	3.628900e-06	9.800000e+00
13.357012	2529946.303181	3.873600e-06	9.800000e+00
14.381852	2389602.789496	4.101100e-06	9.800000e+00
15.406188	2275629.861837	4.306500e-06	9.800000e+00
16.430927	2176761.955532	4.502100e-06	9.800000e+00
17.454873	2092675.635277	4.683000e-06	9.800000e+00
18.478888	2021493.842695	4.847900e-06	9.800000e+00
19.504466	1965463.989892	4.986100e-06	9.800000e+00
20.528886	1916945.406177	5.112300e-06	9.800000e+00
21.552294	1877035.050757	5.221000e-06	9.800000e+00
22.577273	1843352.644647	5.316400e-06	9.800000e+00
23.602358	1814277.251185	5.401600e-06	9.800000e+00
24.626900	1789725.514546	5.475700e-06	9.800000e+00
25.650768	1767453.604343	5.544700e-06	9.800000e+00
26.675544	1751282.188745	5.595900e-06	9.800000e+00
27.701669	1735250.371839	5.647600e-06	9.800000e+00
28.729327	1725139.507455	5.680700e-06	9.800000e+00
29.754024	1714245.731878	5.716800e-06	9.800000e+00
30.778194	1704822.211398	5.748400e-06	9.800000e+00
31.802750	1693275.278181	5.787600e-06	9.800000e+00
32.827492	1684051.346382	5.819300e-06	9.800000e+00
33.853325	1674011.820573	5.854200e-06	9.800000e+00
34.878806	1665024.295763	5.885800e-06	9.800000e+00
35.901813	1656076.787887	5.917600e-06	9.800000e+00
36.926099	1649026.569520	5.942900e-06	9.800000e+00
37.950090	1641788.544337	5.969100e-06	9.800000e+00
38.974038	1638083.776285	5.982600e-06	9.800000e+00
39.997141	1631104.157651	6.008200e-06	9.800000e+00
41.021625	1625908.351860	6.027400e-06	9.800000e+00
42.047117	1620182.849207	6.048700e-06	9.800000e+00
43.071120	1614630.529698	6.069500e-06	9.800000e+00
44.095354	1609380.388550	6.089300e-06	9.800000e+00
45.119490	1604190.538550	6.109000e-06	9.800000e+00
46.143901	1597157.711175	6.135900e-06	9.800000e+00
47.168330	1592511.943840	6.153800e-06	9.800000e+00
48.192246	1588150.452947	6.170700e-06	9.800000e+00
49.216287	1583224.284722	6.189900e-06	9.800000e+00
50.240132	1579346.021821	6.205100e-06	9.800000e+00
51.265273	1576272.276909	6.217200e-06	9.800000e+00
52.290126	1572175.698656	6.233400e-06	9.800000e+00
53.314253	1565995.525727	6.258000e-06	9.800000e+00
54.338394	1560584.104336	6.279700e-06	9.800000e+00
55.362832	1555061.885116	6.302000e-06	9.800000e+00
56.387049	1549456.109284	6.324800e-06	9.800000e+00
57.411920	1543477.233711	6.349300e-06	9.800000e+00
58.436781	1537520.199564	6.373900e-06	9.800000e+00
59.462163	1530939.028010	6.401300e-06	9.800000e+00
60.486084	1526455.974206	6.420100e-06	9.800000e+00
61.509988	1522448.345503	6.437000e-06	9.800000e+00
62.534142	1518955.950277	6.451800e-06	9.800000e+00
63.559469	1512228.994676	6.480500e-06	9.800000e+00
64.583895	1506325.028051	6.505900e-06	9.800000e+00
65.609350	1499778.094058	6.534300e-06	9.800000e+00
66.635319	1493902.439024	6.560000e-06	9.800000e+00
67.660425	1487395.085525	6.588700e-06	9.800000e+00
68.684307	1484106.431633	6.603300e-06	9.800000e+00
69.708352	1481145.620796	6.616500e-06	9.800000e+00
70.732497	1476014.760148	6.639500e-06	9.800000e+00
71.757639	1470588.235294	6.664000e-06	9.800000e+00
72.783241	1467285.521785	6.679000e-06	9.800000e+00
73.807256	1463800.803597	6.694900e-06	9.800000e+00
74.832012	1460332.598200	6.710800e-06	9.800000e+00
75.857758	1454653.406561	6.737000e-06	9.800000e+00
76.882253	1448718.327765	6.764600e-06	9.800000e+00
77.906996	1444362.564480	6.785000e-06	9.800000e+00
78.930425	1441664.092267	6.797700e-06	9.800000e+00
79.954825	1436255.184442	6.823300e-06	9.800000e+00
80.979193	1430343.720353	6.851500e-06	9.800000e+00
82.006110	1422929.492392	6.887200e-06	9.800000e+00
83.031362	1416614.868674	6.917900e-06	9.800000e+00
84.055642	1410721.483273	6.946800e-06	9.800000e+00
85.080963	1405017.921147	6.975000e-06	9.800000e+00
86.105268	1400180.023146	6.999100e-06	9.800000e+00
87.129230	1394660.442876	7.026800e-06	9.800000e+00
88.153065	1391116.726049	7.044700e-06	9.800000e+00
89.177321	1386158.220060	7.069900e-06	9.800000e+00
90.201476	1382696.540437	7.087600e-06	9.800000e+00
91.225994	1379232.696259	7.105400e-06	9.800000e+00
92.249456	1376249.859566	7.120800e-06	9.800000e+00
93.273363	1372472.130413	7.140400e-06	9.800000e+00
94.297397	1369327.073552	7.156800e-06	9.800000e+00
95.321373	1365054.602184	7.179200e-06	9.800000e+00
96.345433	1360884.297062	7.201200e-06	9.800000e+00
97.369592	1354770.034699	7.233700e-06	9.800000e+00
98.393917	1349509.081645	7.261900e-06	9.800000e+00
99.418236	1344012.288112	7.291600e-06	9.800000e+00
100.442165	1341069.571405	7.307600e-06	9.800000e+00
101.466665	1336624.885773	7.331900e-06	9.800000e+00
102.492093	1330112.109449	7.367800e-06	9.800000e+00
103.515441	1324753.974262	7.397600e-06	9.800000e+00
104.540097	1319705.355580	7.425900e-06	9.800000e+00
105.564253	1316832.614450	7.442100e-06	9.800000e+00
106.587113	1317062.681432	7.440800e-06	9.800000e+00
107.610347	1311229.746183	7.473900e-06	9.800000e+00
108.634413	1302983.566452	7.521200e-06	9.800000e+00
109.658432	1296450.635658	7.559100e-06	9.800000e+00
110.683094	1291444.836856	7.588400e-06	9.800000e+00
111.707369	1286697.127252	7.616400e-06	9.800000e+00
112.731271	1283075.190825	7.637900e-06	9.800000e+00
113.755320	1280225.737763	7.654900e-06	9.800000e+00
114.779523	1277255.724843	7.672700e-06	9.800000e+00
115.803615	1272942.185044	7.698700e-06	9.800000e+00
116.827435	1270269.219303	7.714900e-06	9.800000e+00
117.852564	1266411.661325	7.738400e-06	9.800000e+00
118.877319	1261845.900288	7.766400e-06	9.800000e+00
119.901464	1256942.039581	7.796700e-06	9.800000e+00
120.925409	1252140.137480	7.826600e-06	9.800000e+00
121.949695	1249203.314213	7.845000e-06	9.800000e+00
122.973341	1246835.201466	7.859900e-06	9.800000e+00
123.997241	1241811.016638	7.891700e-06	9.800000e+00
125.021280	1236546.250615	7.925300e-06	9.800000e+00
126.044973	1233309.422232	7.946100e-06	9.800000e+00
127.069512	1228932.584270	7.974400e-06	9.800000e+00
128.092507	1224862.203002	8.000900e-06	9.800000e+00
129.116442	1220833.904302	8.027300e-06	9.800000e+00
130.140181	1216786.689844	8.054000e-06	9.800000e+00
131.164575	1211566.753619	8.088700e-06	9.800000e+00
132.188062	1207922.988747	8.113100e-06	9.800000e+00
133.211541	1203753.746376	8.141200e-06	9.800000e+00
134.235738	1201201.201201	8.158500e-06	9.800000e+00
135.260393	1197107.397635	8.186400e-06	9.800000e+00
136.285181	1194233.557963	8.206100e-06	9.800000e+00
137.308394	1191474.875685	8.225100e-06	9.800000e+00
138.333154	1189536.930266	8.238500e-06	9.800000e+00
139.357346	1185077.695145	8.269500e-06	9.800000e+00
140.381142	1182004.583283	8.291000e-06	9.800000e+00
141.404454	1177714.752680	8.321200e-06	9.800000e+00
142.428432	1173737.034997	8.349400e-06	9.800000e+00
143.453582	1169339.442535	8.380800e-06	9.800000e+00
144.477250	1165639.793515	8.407400e-06	9.800000e+00
145.500581	1161991.036069	8.433800e-06	9.800000e+00
146.526016	1158351.358699	8.460300e-06	9.800000e+00
147.552178	1155088.281747	8.484200e-06	9.800000e+00
148.578479	1151843.537335	8.508100e-06	9.800000e+00
149.602656	1148536.202330	8.532600e-06	9.800000e+00
150.627318	1144605.753396	8.561900e-06	9.800000e+00
151.652730	1140410.082156	8.593400e-06	9.800000e+00
152.677402	1136192.364324	8.625300e-06	9.800000e+00
153.701421	1131326.191356	8.662400e-06	9.800000e+00
154.725742	1127006.762041	8.695600e-06	9.800000e+00
155.750506	1123222.042660	8.724900e-06	9.800000e+00
156.774435	1118976.935373	8.758000e-06	9.800000e+00
157.798344	1116605.519222	8.776600e-06	9.800000e+00
158.823629	1113712.298566	8.799400e-06	9.800000e+00
159.848299	1111035.530463	8.820600e-06	9.800000e+00
160.872715	1107607.454876	8.847900e-06	9.800000e+00
161.896356	1105545.778620	8.864400e-06	9.800000e+00
162.920652	1102908.075988	8.885600e-06	9.800000e+00
163.945329	1100147.060474	8.907900e-06	9.800000e+00
164.969637	1097092.704334	8.932700e-06	9.800000e+00
165.993633	1094531.808435	8.953600e-06	9.800000e+00
167.018034	1091071.030951	8.982000e-06	9.800000e+00
168.042679	1089046.195562	8.998700e-06	9.800000e+00
169.066693	1085103.084793	9.031400e-06	9.800000e+00
170.090659	1082585.833591	9.052400e-06	9.800000e+00
171.114662	1079045.595182	9.082100e-06	9.800000e+00
172.138949	1075646.485490	9.110800e-06	9.800000e+00
173.162501	1072656.027670	9.136200e-06	9.800000e+00
174.186603	1069273.657680	9.165100e-06	9.800000e+00
175.210439	1066237.270433	9.191200e-06	9.800000e+00
176.234936	1065124.771759	9.200800e-06	9.800000e+00
177.259432	1062031.297412	9.227600e-06	9.800000e+00
178.285538	1059115.962391	9.253000e-06	9.800000e+00
179.309579	1055511.276738	9.284600e-06	9.800000e+00
180.335536	1053457.598332	9.302700e-06	9.800000e+00
181.360442	1049846.272510	9.334700e-06	9.800000e+00
182.385517	1048509.618471	9.346600e-06	9.800000e+00
183.409669	1045757.213591	9.371200e-06	9.800000e+00
184.433821	1043274.604780	9.393500e-06	9.800000e+00
185.457749	1040704.280693	9.416700e-06	9.800000e+00
186.481663	1038443.606154	9.437200e-06	9.800000e+00
187.504762	1035973.656670	9.459700e-06	9.800000e+00
188.529276	1033984.321421	9.477900e-06	9.800000e+00
189.553473	1031687.546057	9.499000e-06	9.800000e+00
190.578558	1028730.986847	9.526300e-06	9.800000e+00
191.602525	1026006.114159	9.551600e-06	9.800000e+00
192.626545	1023594.907093	9.574100e-06	9.800000e+00
193.651148	1020971.589903	9.598700e-06	9.800000e+00
194.675634	1016913.977379	9.637000e-06	9.800000e+00
195.699745	1014377.244827	9.661100e-06	9.800000e+00
196.723800	1012836.147915	9.675800e-06	9.800000e+00
197.748729	1009185.648968	9.710800e-06	9.800000e+00
198.776369	1005953.602956	9.742000e-06	9.800000e+00
199.801770	1004551.232113	9.755600e-06	9.800000e+00
200.826366	1001973.273897	9.780700e-06	9.800000e+00
201.851988	999245.467708	9.807400e-06	9.800000e+00
202.877785	996522.340404	9.834200e-06	9.800000e+00
203.901739	994681.498924	9.852400e-06	9.800000e+00
204.925705	991551.575859	9.883500e-06	9.800000e+00
205.949997	989599.111380	9.903000e-06	9.800000e+00
206.974514	986997.814505	9.929100e-06	9.800000e+00
207.998495	983787.582191	9.961500e-06	9.800000e+00
209.023511	980549.107500	9.994400e-06	9.800000e+00
210.047403	981079.187106	9.989000e-06	9.800000e+00
211.070657	977946.312743	1.002100e-05	9.800000e+00
212.094555	975124.378109	1.005000e-05	9.800000e+00
213.119349	972415.161738	1.007800e-05	9.800000e+00
214.143833	969912.905780	1.010400e-05	9.800000e+00
215.167831	967328.003159	1.013100e-05	9.800000e+00
216.191710	964566.929134	1.016000e-05	9.800000e+00
217.216573	961538.461538	1.019200e-05	9.800000e+00
218.240516	958716.493837	1.022200e-05	9.800000e+00
219.264660	956470.817880	1.024600e-05	9.800000e+00
220.288579	953307.392996	1.028000e-05	9.800000e+00
221.312503	952010.880124	1.029400e-05	9.800000e+00
222.336482	948968.722766	1.032700e-05	9.800000e+00
223.359610	946494.108557	1.035400e-05	9.800000e+00
224.383569	944760.435747	1.037300e-05	9.800000e+00
225.407435	943759.630200	1.038400e-05	9.800000e+00
226.431393	941854.877463	1.040500e-05	9.800000e+00
227.455788	940499.040307	1.042000e-05	9.800000e+00
228.479393	938517.525378	1.044200e-05	9.800000e+00
229.503555	937529.895724	1.045300e-05	9.800000e+00
230.527639	934312.136524	1.048900e-05	9.800000e+00
231.552652	932179.206696	1.051300e-05	9.800000e+00
232.577568	928909.952607	1.055000e-05	9.800000e+00
233.602642	926976.920166	1.057200e-05	9.800000e+00
234.626739	924179.554885	1.060400e-05	9.800000e+00
235.650739	921572.315215	1.063400e-05	9.800000e+00
236.675998	918635.170604	1.066800e-05	9.800000e+00
237.702223	916401.720591	1.069400e-05	9.800000e+00
238.726622	913412.247181	1.072900e-05	9.800000e+00
239.750755	911373.570166	1.075300e-05	9.800000e+00
240.774731	909006.585660	1.078100e-05	9.800000e+00
241.798920	907995.923284	1.079300e-05	9.800000e+00
242.822792	904225.871932	1.083800e-05	9.800000e+00
243.846711	902144.895517	1.086300e-05	9.800000e+00
244.870850	900404.263139	1.088400e-05	9.800000e+00
245.894974	898752.751284	1.090400e-05	9.800000e+00
246.919666	897600.293094	1.091800e-05	9.800000e+00
247.943944	896122.896854	1.093600e-05	9.800000e+00
248.968439	894242.175381	1.095900e-05	9.800000e+00
249.992700	892613.170598	1.097900e-05	9.800000e+00
251.016519	890585.241730	1.100400e-05	9.800000e+00
252.040839	888405.402955	1.103100e-05	9.800000e+00
253.065664	885995.841244	1.106100e-05	9.800000e+00
254.090642	883918.102282	1.108700e-05	9.800000e+00
255.114734	880819.701600	1.112600e-05	9.800000e+00
256.138635	878293.601004	1.115800e-05	9.800000e+00
257.163130	875390.799464	1.119500e-05	9.800000e+00
258.186717	873206.807449	1.122300e-05	9.800000e+00
259.211034	871111.111111	1.125000e-05	9.800000e+00
260.235774	869565.217391	1.127000e-05	9.800000e+00
261.259874	866566.451499	1.130900e-05	9.800000e+00
262.283940	863588.297497	1.134800e-05	9.800000e+00
263.309038	862600.123229	1.136100e-05	9.800000e+00
264.333688	859498.333626	1.140200e-05	9.800000e+00
265.358568	857317.819963	1.143100e-05	9.800000e+00
266.383626	855222.968845	1.145900e-05	9.800000e+00
267.407917	854775.403402	1.146500e-05	9.800000e+00
268.432689	852915.578764	1.149000e-05	9.800000e+00
269.456830	850694.444444	1.152000e-05	9.800000e+00
270.482388	849146.521099	1.154100e-05	9.800000e+00
271.506549	847897.560132	1.155800e-05	9.800000e+00
272.530517	846506.003282	1.157700e-05	9.800000e+00
273.553952	844754.762520	1.160100e-05	9.800000e+00
274.577975	842431.015215	1.163300e-05	9.800000e+00
275.603458	839544.247409	1.167300e-05	9.800000e+00
276.627686	837177.515804	1.170600e-05	9.800000e+00
277.651618	834824.090638	1.173900e-05	9.800000e+00
278.675537	832413.148730	1.177300e-05	9.800000e+00
279.699921	830156.713257	1.180500e-05	9.800000e+00
280.723962	827702.702703	1.184000e-05	9.800000e+00
281.748427	825680.343753	1.186900e-05	9.800000e+00
282.772510	823529.411765	1.190000e-05	9.800000e+00
283.797008	821389.657196	1.193100e-05	9.800000e+00
284.822008	819672.131148	1.195600e-05	9.800000e+00
285.845943	817211.474316	1.199200e-05	9.800000e+00
286.869950	815104.383265	1.202300e-05	9.800000e+00
287.894794	812940.688511	1.205500e-05	9.800000e+00
288.919648	811258.278146	1.208000e-05	9.800000e+00
289.942744	810118.211127	1.209700e-05	9.800000e+00
290.966894	807914.262160	1.213000e-05	9.800000e+00
291.990728	806053.627241	1.215800e-05	9.800000e+00
293.015442	804597.701149	1.218000e-05	9.800000e+00
294.038816	803081.209539	1.220300e-05	9.800000e+00
295.063462	801767.160272	1.222300e-05	9.800000e+00
296.090021	800130.633573	1.224800e-05	9.800000e+00
297.115824	798370.672098	1.227500e-05	9.800000e+00
298.139727	796165.407425	1.230900e-05	9.800000e+00
299.165734	794422.827497	1.233600e-05	9.800000e+00
300.191273	792495.552321	1.236600e-05	9.800000e+00
301.218602	790004.030633	1.240500e-05	9.800000e+00
302.243744	787908.023798	1.243800e-05	9.800000e+00
303.268015	785130.588047	1.248200e-05	9.800000e+00
304.292259	782560.089435	1.252300e-05	9.800000e+00
305.316700	781000.956328	1.254800e-05	9.800000e+00
306.341057	779324.055666	1.257500e-05	9.800000e+00
307.364992	777284.263959	1.260800e-05	9.800000e+00
308.388816	775316.455696	1.264000e-05	9.800000e+00
309.413051	773724.932891	1.266600e-05	9.800000e+00
310.437648	772079.098716	1.269300e-05	9.800000e+00
311.461086	770864.469441	1.271300e-05	9.800000e+00
312.485094	768989.328311	1.274400e-05	9.800000e+00
313.509351	767964.893033	1.276100e-05	9.800000e+00
314.533083	765924.189136	1.279500e-05	9.800000e+00
315.557189	764370.953904	1.282100e-05	9.800000e+00
316.581094	762527.233115	1.285200e-05	9.800000e+00
317.606005	761283.306145	1.287300e-05	9.800000e+00
318.631188	759572.159355	1.290200e-05	9.800000e+00
319.655946	757751.488440	1.293300e-05	9.800000e+00
320.680024	755065.875645	1.297900e-05	9.800000e+00
321.705293	752688.172043	1.302000e-05	9.800000e+00
322.729056	750267.952840	1.306200e-05	9.800000e+00
323.754141	748148.713642	1.309900e-05	9.800000e+00
324.777935	745984.623582	1.313700e-05	9.800000e+00
325.802162	744171.918900	1.316900e-05	9.800000e+00
326.826824	742424.242424	1.320000e-05	9.800000e+00
327.854016	739845.991243	1.324600e-05	9.800000e+00
328.878089	738396.624473	1.327200e-05	9.800000e+00
329.902959	736565.201052	1.330500e-05	9.800000e+00
330.927553	735349.290913	1.332700e-05	9.800000e+00
331.952009	733587.843401	1.335900e-05	9.800000e+00
332.975952	731944.133244	1.338900e-05	9.800000e+00
334.000997	730307.772561	1.341900e-05	9.800000e+00
335.025779	728949.717346	1.344400e-05	9.800000e+00
336.049926	727434.679335	1.347200e-05	9.800000e+00
337.075074	726464.047443	1.349000e-05	9.800000e+00
338.099219	725066.587748	1.351600e-05	9.800000e+00
339.123191	723621.058850	1.354300e-05	9.800000e+00
340.147126	721277.691911	1.358700e-05	9.800000e+00
341.171135	719688.624513	1.361700e-05	9.800000e+00
342.195064	717580.727832	1.365700e-05	9.800000e+00
343.219428	715903.280006	1.368900e-05	9.800000e+00
344.243110	713557.594292	1.373400e-05	9.800000e+00
345.266848	712105.798576	1.376200e-05	9.800000e+00
346.290072	709579.320831	1.381100e-05	9.800000e+00
347.315760	707581.227437	1.385000e-05	9.800000e+00
348.340035	704833.141542	1.390400e-05	9.800000e+00
349.365173	703214.695752	1.393600e-05	9.800000e+00
350.389218	702307.582055	1.395400e-05	9.800000e+00
351.414235	700350.175088	1.399300e-05	9.800000e+00
352.439656	698802.053622	1.402400e-05	9.800000e+00
353.464574	697459.255569	1.405100e-05	9.800000e+00
354.488847	696022.727273	1.408000e-05	9.800000e+00
355.512201	694739.827024	1.410600e-05	9.800000e+00
356.536865	693412.580485	1.413300e-05	9.800000e+00
357.561355	691846.099541	1.416500e-05	9.800000e+00
358.585140	689752.252252	1.420800e-05	9.800000e+00
359.608904	688492.342279	1.423400e-05	9.800000e+00
360.635061	687237.026648	1.426000e-05	9.800000e+00
361.660872	685458.487795	1.429700e-05	9.800000e+00
362.685765	683689.130738	1.433400e-05	9.800000e+00
363.709345	681407.314699	1.438200e-05	9.800000e+00
364.733452	680130.474009	1.440900e-05	9.800000e+00
365.757205	679093.617906	1.443100e-05	9.800000e+00
366.782881	676375.181172	1.448900e-05	9.800000e+00
367.808999	674049.109292	1.453900e-05	9.800000e+00
368.834137	671370.829623	1.459700e-05	9.800000e+00
369.858802	669444.634196	1.463900e-05	9.800000e+00
370.883057	667620.410110	1.467900e-05	9.800000e+00
371.907125	665308.893415	1.473000e-05	9.800000e+00
372.931536	663956.639566	1.476000e-05	9.800000e+00
373.955416	662251.655629	1.479800e-05	9.800000e+00
374.979932	660466.370131	1.483800e-05	9.800000e+00
376.004052	658690.684232	1.487800e-05	9.800000e+00
377.028261	656836.461126	1.492000e-05	9.800000e+00
378.053558	654773.835772	1.496700e-05	9.800000e+00
379.078112	652767.601412	1.501300e-05	9.800000e+00
380.102889	650989.770161	1.505400e-05	9.800000e+00
381.127633	649307.626052	1.509300e-05	9.800000e+00
382.152558	647676.954597	1.513100e-05	9.800000e+00
383.176193	645713.909205	1.517700e-05	9.800000e+00
384.201373	644270.593649	1.521100e-05	9.800000e+00
385.226143	642749.393323	1.524700e-05	9.800000e+00
386.250368	640899.875744	1.529100e-05	9.800000e+00
387.276836	639060.971634	1.533500e-05	9.800000e+00
388.302315	637149.730187	1.538100e-05	9.800000e+00
389.326049	635455.842303	1.542200e-05	9.800000e+00
390.349414	634304.207120	1.545000e-05	9.800000e+00
391.373973	632502.904350	1.549400e-05	9.800000e+00
392.398281	631036.703155	1.553000e-05	9.800000e+00
393.422035	629617.732091	1.556500e-05	9.800000e+00
394.446257	628245.400346	1.559900e-05	9.800000e+00
395.471774	626158.072967	1.565100e-05	9.800000e+00
396.496024	624601.657106	1.569000e-05	9.800000e+00
397.520488	622696.657771	1.573800e-05	9.800000e+00
398.544339	620724.600963	1.578800e-05	9.800000e+00
