Time	SourceV	Current	Voltage
1.032776	8357709.987463	1.196500e-06	1.000000e+01
2.095970	7070135.746606	1.414400e-06	1.000000e+01
3.124104	6327912.421692	1.580300e-06	1.000000e+01
4.152600	5647803.004631	1.770600e-06	1.000000e+01
5.179923	5104905.814488	1.958900e-06	1.000000e+01
6.210284	4643172.215257	2.153700e-06	1.000000e+01
7.234589	4251700.680272	2.352000e-06	1.000000e+01
8.259139	3920492.413847	2.550700e-06	1.000000e+01
9.283469	3629237.134354	2.755400e-06	1.000000e+01
10.307637	3389141.191622	2.950600e-06	1.000000e+01
11.331471	3186235.462801	3.138500e-06	1.000000e+01
12.355721	3016045.361322	3.315600e-06	1.000000e+01
13.380443	2871995.175048	3.481900e-06	1.000000e+01
14.404283	2755276.354218	3.629400e-06	1.000000e+01
15.428185	2658019.244059	3.762200e-06	1.000000e+01
16.451271	2582111.134063	3.872800e-06	1.000000e+01
17.475128	2514964.036014	3.976200e-06	1.000000e+01
18.499266	2466273.707056	4.054700e-06	1.000000e+01
19.523081	2422774.076317	4.127500e-06	1.000000e+01
20.546803	2383619.764975	4.195300e-06	1.000000e+01
21.571233	2354603.249352	4.247000e-06	1.000000e+01
22.594580	2332687.956332	4.286900e-06	1.000000e+01
23.618599	2312619.967161	4.324100e-06	1.000000e+01
24.642942	2297371.806653	4.352800e-06	1.000000e+01
25.666513	2285035.303795	4.376300e-06	1.000000e+01
26.692418	2276504.200150	4.392700e-06	1.000000e+01
27.716481	2270199.096461	4.404900e-06	1.000000e+01
28.740586	2264441.475510	4.416100e-06	1.000000e+01
29.764273	2257947.976879	4.428800e-06	1.000000e+01
30.788325	2253571.911480	4.437400e-06	1.000000e+01
31.812606	2256063.169769	4.432500e-06	1.000000e+01
32.836596	2258151.928462	4.428400e-06	1.000000e+01
33.860375	2255503.428365	4.433600e-06	1.000000e+01
34.885140	2253927.468614	4.436700e-06	1.000000e+01
35.908667	2256368.600375	4.431900e-06	1.000000e+01
36.932634	2254588.086757	4.435400e-06	1.000000e+01
37.956478	2254994.813512	4.434600e-06	1.000000e+01
38.980433	2256674.113691	4.431300e-06	1.000000e+01
40.004099	2254588.086757	4.435400e-06	1.000000e+01
41.029146	2252861.133640	4.438800e-06	1.000000e+01
42.053626	2248858.704208	4.446700e-06	1.000000e+01
43.077622	2245929.253229	4.452500e-06	1.000000e+01
44.101726	2246787.094455	4.450800e-06	1.000000e+01
45.125750	2243460.313187	4.457400e-06	1.000000e+01
46.150257	2237687.126586	4.468900e-06	1.000000e+01
47.174631	2233139.794551	4.478000e-06	1.000000e+01
48.198174	2228461.915586	4.487400e-06	1.000000e+01
49.222261	2223210.315696	4.498000e-06	1.000000e+01
50.247268	2220692.411894	4.503100e-06	1.000000e+01
51.272437	2214937.538761	4.514800e-06	1.000000e+01
52.296654	2212144.674262	4.520500e-06	1.000000e+01
53.321350	2200849.527918	4.543700e-06	1.000000e+01
54.345572	2203516.812833	4.538200e-06	1.000000e+01
55.370564	2190724.472583	4.564700e-06	1.000000e+01
56.394652	2181786.446743	4.583400e-06	1.000000e+01
57.419528	2180597.047472	4.585900e-06	1.000000e+01
58.443805	2170986.930659	4.606200e-06	1.000000e+01
59.468297	2161648.040466	4.626100e-06	1.000000e+01
60.492274	2157124.983822	4.635800e-06	1.000000e+01
61.517222	2157124.983822	4.635800e-06	1.000000e+01
62.541634	2156845.828660	4.636400e-06	1.000000e+01
63.566697	2146014.850423	4.659800e-06	1.000000e+01
64.590352	2157171.516707	4.635700e-06	1.000000e+01
65.613538	2150722.642808	4.649600e-06	1.000000e+01
66.638127	2140090.311811	4.672700e-06	1.000000e+01
67.662405	2131741.632914	4.691000e-06	1.000000e+01
68.685942	2108414.683000	4.742900e-06	1.000000e+01
69.709700	2088380.252276	4.788400e-06	1.000000e+01
70.735331	2072152.344640	4.825900e-06	1.000000e+01
71.763879	2056851.371920	4.861800e-06	1.000000e+01
72.788771	2044906.138808	4.890200e-06	1.000000e+01
73.812746	2035872.065799	4.911900e-06	1.000000e+01
74.836769	2024250.521245	4.940100e-06	1.000000e+01
75.861359	2014423.270618	4.964200e-06	1.000000e+01
76.885890	2006541.324719	4.983700e-06	1.000000e+01
77.909919	1997802.417341	5.005500e-06	1.000000e+01
78.933793	1988269.211651	5.029500e-06	1.000000e+01
79.957988	1981885.565927	5.045700e-06	1.000000e+01
80.981821	1973671.225847	5.066700e-06	1.000000e+01
82.005742	1967845.406065	5.081700e-06	1.000000e+01
83.029607	1958940.604921	5.104800e-06	1.000000e+01
84.054398	1957790.046595	5.107800e-06	1.000000e+01
85.078619	1947685.176168	5.134300e-06	1.000000e+01
86.101619	1942426.479158	5.148200e-06	1.000000e+01
87.125605	1929980.314201	5.181400e-06	1.000000e+01
88.151719	1919533.169533	5.209600e-06	1.000000e+01
89.175736	1920086.019854	5.208100e-06	1.000000e+01
90.200584	1907778.010951	5.241700e-06	1.000000e+01
91.224859	1898109.482955	5.268400e-06	1.000000e+01
92.249731	1887469.092694	5.298100e-06	1.000000e+01
93.273843	1879275.351424	5.321200e-06	1.000000e+01
94.297629	1870977.398593	5.344800e-06	1.000000e+01
95.321657	1859461.871734	5.377900e-06	1.000000e+01
96.345856	1846687.965135	5.415100e-06	1.000000e+01
97.370337	1835738.150310	5.447400e-06	1.000000e+01
98.393860	1822921.413858	5.485700e-06	1.000000e+01
99.417689	1810970.861479	5.521900e-06	1.000000e+01
100.442056	1800958.109714	5.552600e-06	1.000000e+01
101.465833	1790959.237768	5.583600e-06	1.000000e+01
102.489539	1782626.521917	5.609700e-06	1.000000e+01
103.512763	1774402.469968	5.635700e-06	1.000000e+01
104.537353	1767658.912536	5.657200e-06	1.000000e+01
105.561543	1766160.367361	5.662000e-06	1.000000e+01
106.584864	1758705.592684	5.686000e-06	1.000000e+01
107.609017	1748985.588359	5.717600e-06	1.000000e+01
108.633014	1741978.190433	5.740600e-06	1.000000e+01
109.657791	1756697.408871	5.692500e-06	1.000000e+01
110.681803	1746694.380884	5.725100e-06	1.000000e+01
111.705579	1740795.543563	5.744500e-06	1.000000e+01
112.730228	1742038.882308	5.740400e-06	1.000000e+01
113.755456	1720696.537959	5.811600e-06	1.000000e+01
114.779524	1716207.867097	5.826800e-06	1.000000e+01
115.802671	1706484.641638	5.860000e-06	1.000000e+01
116.827180	1696352.841391	5.895000e-06	1.000000e+01
117.851551	1685431.133284	5.933200e-06	1.000000e+01
118.874914	1674565.031733	5.971700e-06	1.000000e+01
119.898828	1664669.063790	6.007200e-06	1.000000e+01
120.923133	1655053.706493	6.042100e-06	1.000000e+01
121.947818	1647690.761398	6.069100e-06	1.000000e+01
122.971488	1640043.297143	6.097400e-06	1.000000e+01
123.994925	1631321.370310	6.130000e-06	1.000000e+01
125.019418	1622481.098095	6.163400e-06	1.000000e+01
126.043721	1615378.402391	6.190500e-06	1.000000e+01
127.067779	1607975.558772	6.219000e-06	1.000000e+01
128.091982	1601383.595426	6.244600e-06	1.000000e+01
129.116436	1593701.690917	6.274700e-06	1.000000e+01
130.139944	1586093.135389	6.304800e-06	1.000000e+01
131.163684	1582278.481013	6.320000e-06	1.000000e+01
132.187668	1579529.300269	6.331000e-06	1.000000e+01
133.212093	1569957.297162	6.369600e-06	1.000000e+01
134.236040	1563819.472680	6.394600e-06	1.000000e+01
135.259861	1556662.515567	6.424000e-06	1.000000e+01
136.283794	1550652.049187	6.448900e-06	1.000000e+01
137.307641	1541544.627717	6.487000e-06	1.000000e+01
138.331707	1534707.408033	6.515900e-06	1.000000e+01
139.355094	1528911.720637	6.540600e-06	1.000000e+01
140.378992	1524785.386457	6.558300e-06	1.000000e+01
141.405152	1516944.267468	6.592200e-06	1.000000e+01
142.428915	1510733.763389	6.619300e-06	1.000000e+01
143.452953	1506455.160362	6.638100e-06	1.000000e+01
144.476967	1500442.630576	6.664700e-06	1.000000e+01
145.501508	1495170.598965	6.688200e-06	1.000000e+01
146.526012	1490179.715674	6.710600e-06	1.000000e+01
147.549721	1480472.566843	6.754600e-06	1.000000e+01
148.573968	1472992.679226	6.788900e-06	1.000000e+01
149.598058	1464343.242056	6.829000e-06	1.000000e+01
150.621854	1460173.760678	6.848500e-06	1.000000e+01
151.645690	1454926.380725	6.873200e-06	1.000000e+01
152.668981	1451715.928227	6.888400e-06	1.000000e+01
153.694133	1444272.736464	6.923900e-06	1.000000e+01
154.718936	1436740.323554	6.960200e-06	1.000000e+01
155.742926	1431270.395603	6.986800e-06	1.000000e+01
156.766930	1426207.998174	7.011600e-06	1.000000e+01
157.791352	1421241.881156	7.036100e-06	1.000000e+01
158.815732	1414007.154876	7.072100e-06	1.000000e+01
159.840107	1408470.541839	7.099900e-06	1.000000e+01
160.863793	1401718.506889	7.134100e-06	1.000000e+01
161.888115	1400933.021392	7.138100e-06	1.000000e+01
162.912984	1411990.624382	7.082200e-06	1.000000e+01
163.938126	1406608.245538	7.109300e-06	1.000000e+01
164.962078	1394000.223040	7.173600e-06	1.000000e+01
165.986598	1386558.699963	7.212100e-06	1.000000e+01
167.009995	1381062.865982	7.240800e-06	1.000000e+01
168.033934	1379424.504097	7.249400e-06	1.000000e+01
169.057814	1373701.851750	7.279600e-06	1.000000e+01
170.081962	1366979.249255	7.315400e-06	1.000000e+01
171.105989	1359286.646368	7.356800e-06	1.000000e+01
172.130710	1358418.800516	7.361500e-06	1.000000e+01
173.153954	1352905.364270	7.391500e-06	1.000000e+01
174.178040	1355013.550136	7.380000e-06	1.000000e+01
175.201970	1344899.468765	7.435500e-06	1.000000e+01
176.226501	1338240.214118	7.472500e-06	1.000000e+01
177.250178	1331274.295756	7.511600e-06	1.000000e+01
178.274359	1325468.884618	7.544500e-06	1.000000e+01
179.301620	1317783.488173	7.588500e-06	1.000000e+01
180.326943	1313352.858512	7.614100e-06	1.000000e+01
181.350979	1313956.849657	7.610600e-06	1.000000e+01
182.374867	1311372.219891	7.625600e-06	1.000000e+01
183.399241	1313594.388325	7.612700e-06	1.000000e+01
184.423994	1301947.713780	7.680800e-06	1.000000e+01
185.447852	1293042.140243	7.733700e-06	1.000000e+01
186.472211	1286454.916187	7.773300e-06	1.000000e+01
187.497524	1282396.542659	7.797900e-06	1.000000e+01
188.521803	1278772.378517	7.820000e-06	1.000000e+01
189.547178	1275331.267297	7.841100e-06	1.000000e+01
190.571138	1272928.626892	7.855900e-06	1.000000e+01
191.596161	1267925.293842	7.886900e-06	1.000000e+01
192.620995	1263264.274886	7.916000e-06	1.000000e+01
193.645787	1259303.101664	7.940900e-06	1.000000e+01
194.669245	1254233.036498	7.973000e-06	1.000000e+01
195.693133	1249859.390819	8.000900e-06	1.000000e+01
196.717442	1245997.233886	8.025700e-06	1.000000e+01
197.742890	1241187.568265	8.056800e-06	1.000000e+01
198.767184	1236659.535263	8.086300e-06	1.000000e+01
199.791027	1232209.968579	8.115500e-06	1.000000e+01
200.815802	1227144.434900	8.149000e-06	1.000000e+01
201.840234	1222269.754935	8.181500e-06	1.000000e+01
202.863275	1216367.440276	8.221200e-06	1.000000e+01
203.887043	1212356.335774	8.248400e-06	1.000000e+01
204.911152	1206083.485099	8.291300e-06	1.000000e+01
205.936052	1202819.408694	8.313800e-06	1.000000e+01
206.960906	1199242.079006	8.338600e-06	1.000000e+01
207.984132	1195528.722578	8.364500e-06	1.000000e+01
209.009246	1192264.587357	8.387400e-06	1.000000e+01
210.033156	1189414.213500	8.407500e-06	1.000000e+01
211.057074	1186830.924067	8.425800e-06	1.000000e+01
212.081148	1184090.559246	8.445300e-06	1.000000e+01
213.105404	1182983.958738	8.453200e-06	1.000000e+01
214.129722	1178328.187967	8.486600e-06	1.000000e+01
215.153239	1175364.362953	8.508000e-06	1.000000e+01
216.177170	1171865.844798	8.533400e-06	1.000000e+01
217.201711	1167665.020259	8.564100e-06	1.000000e+01
218.226182	1164605.315259	8.586600e-06	1.000000e+01
219.250197	1159648.858326	8.623300e-06	1.000000e+01
220.274119	1155775.409722	8.652200e-06	1.000000e+01
221.298214	1151994.101790	8.680600e-06	1.000000e+01
222.321974	1148580.354682	8.706400e-06	1.000000e+01
223.345975	1144937.658145	8.734100e-06	1.000000e+01
224.370084	1140172.850204	8.770600e-06	1.000000e+01
225.394761	1135653.852706	8.805500e-06	1.000000e+01
226.420119	1132079.743697	8.833300e-06	1.000000e+01
227.444084	1128349.788434	8.862500e-06	1.000000e+01
228.468815	1125340.415476	8.886200e-06	1.000000e+01
229.493627	1124859.392576	8.890000e-06	1.000000e+01
230.517215	1120360.307875	8.925700e-06	1.000000e+01
231.541001	1116445.238361	8.957000e-06	1.000000e+01
232.565287	1111135.803018	8.999800e-06	1.000000e+01
233.589602	1107615.967392	9.028400e-06	1.000000e+01
234.613201	1102949.286392	9.066600e-06	1.000000e+01
235.636587	1100703.349440	9.085100e-06	1.000000e+01
236.660217	1098551.011216	9.102900e-06	1.000000e+01
237.684021	1096815.943317	9.117300e-06	1.000000e+01
238.708477	1093768.799151	9.142700e-06	1.000000e+01
239.733152	1090381.742648	9.171100e-06	1.000000e+01
240.757082	1085729.175714	9.210400e-06	1.000000e+01
241.781743	1082087.129656	9.241400e-06	1.000000e+01
242.806114	1078318.254850	9.273700e-06	1.000000e+01
243.830338	1075361.321404	9.299200e-06	1.000000e+01
244.854194	1072489.570039	9.324100e-06	1.000000e+01
245.878511	1068787.140353	9.356400e-06	1.000000e+01
246.902337	1066507.401561	9.376400e-06	1.000000e+01
247.928030	1062597.626157	9.410900e-06	1.000000e+01
248.952399	1059131.300507	9.441700e-06	1.000000e+01
249.976348	1055631.795630	9.473000e-06	1.000000e+01
251.000164	1051779.084321	9.507700e-06	1.000000e+01
252.024110	1048053.241105	9.541500e-06	1.000000e+01
253.048147	1044451.871658	9.574400e-06	1.000000e+01
254.072166	1042296.387401	9.594200e-06	1.000000e+01
255.096156	1039187.770838	9.622900e-06	1.000000e+01
256.120419	1036527.219205	9.647600e-06	1.000000e+01
257.145116	1034126.163392	9.670000e-06	1.000000e+01
258.169164	1032503.200760	9.685200e-06	1.000000e+01
259.193352	1029590.428927	9.712600e-06	1.000000e+01
260.217968	1026504.342113	9.741800e-06	1.000000e+01
261.242562	1025031.263454	9.755800e-06	1.000000e+01
262.267217	1021293.979472	9.791500e-06	1.000000e+01
263.292507	1016601.095896	9.836700e-06	1.000000e+01
264.317462	1011275.724326	9.888500e-06	1.000000e+01
265.342238	1007851.160541	9.922100e-06	1.000000e+01
266.367136	1006461.482719	9.935800e-06	1.000000e+01
267.391899	1003029.148027	9.969800e-06	1.000000e+01
268.416135	1002204.850671	9.978000e-06	1.000000e+01
269.440120	998203.234178	1.001800e-05	1.000000e+01
270.464088	994925.878022	1.005100e-05	1.000000e+01
271.489033	991866.693116	1.008200e-05	1.000000e+01
272.512453	988630.746416	1.011500e-05	1.000000e+01
273.535348	985221.674877	1.015000e-05	1.000000e+01
274.561089	982897.582072	1.017400e-05	1.000000e+01
275.584905	981739.642647	1.018600e-05	1.000000e+01
276.609479	981161.695447	1.019200e-05	1.000000e+01
277.633337	978282.136568	1.022200e-05	1.000000e+01
278.657189	976848.686139	1.023700e-05	1.000000e+01
279.681827	974468.914442	1.026200e-05	1.000000e+01
280.706253	972384.286270	1.028400e-05	1.000000e+01
281.730872	968335.431393	1.032700e-05	1.000000e+01
282.755528	964227.171922	1.037100e-05	1.000000e+01
283.779650	961538.461538	1.040000e-05	1.000000e+01
284.803424	958956.655159	1.042800e-05	1.000000e+01
285.826593	955018.622863	1.047100e-05	1.000000e+01
286.850061	951022.349025	1.051500e-05	1.000000e+01
287.874562	946969.696970	1.056000e-05	1.000000e+01
288.899093	943129.303027	1.060300e-05	1.000000e+01
289.923148	941353.666573	1.062300e-05	1.000000e+01
290.947435	938878.978500	1.065100e-05	1.000000e+01
291.971814	937207.122774	1.067000e-05	1.000000e+01
292.996303	935979.034070	1.068400e-05	1.000000e+01
294.020548	931619.154090	1.073400e-05	1.000000e+01
295.044553	927988.121752	1.077600e-05	1.000000e+01
296.068630	924470.740501	1.081700e-05	1.000000e+01
297.093129	922083.909636	1.084500e-05	1.000000e+01
298.117449	918864.283745	1.088300e-05	1.000000e+01
299.141535	917599.559552	1.089800e-05	1.000000e+01
300.165270	914160.343724	1.093900e-05	1.000000e+01
301.190442	911577.028259	1.097000e-05	1.000000e+01
302.215389	907770.515614	1.101600e-05	1.000000e+01
303.239578	903995.660821	1.106200e-05	1.000000e+01
304.263384	900819.745969	1.110100e-05	1.000000e+01
305.288136	898795.613877	1.112600e-05	1.000000e+01
306.312512	895816.536773	1.116300e-05	1.000000e+01
307.336505	892219.842969	1.120800e-05	1.000000e+01
308.361308	887862.913966	1.126300e-05	1.000000e+01
309.386189	885425.889853	1.129400e-05	1.000000e+01
310.412382	882301.041115	1.133400e-05	1.000000e+01
311.436196	879275.477007	1.137300e-05	1.000000e+01
312.459681	876040.297854	1.141500e-05	1.000000e+01
313.484109	873286.175880	1.145100e-05	1.000000e+01
314.508562	870397.771782	1.148900e-05	1.000000e+01
315.532438	867302.688638	1.153000e-05	1.000000e+01
316.556356	865126.741068	1.155900e-05	1.000000e+01
317.580889	861103.935245	1.161300e-05	1.000000e+01
318.604419	858295.425285	1.165100e-05	1.000000e+01
319.628252	855651.578677	1.168700e-05	1.000000e+01
320.651450	853460.783477	1.171700e-05	1.000000e+01
321.675859	849762.066621	1.176800e-05	1.000000e+01
322.700467	847960.654626	1.179300e-05	1.000000e+01
323.724180	845379.998309	1.182900e-05	1.000000e+01
324.747528	842815.002107	1.186500e-05	1.000000e+01
325.771927	840194.925223	1.190200e-05	1.000000e+01
326.796703	837240.455459	1.194400e-05	1.000000e+01
327.821237	834863.917181	1.197800e-05	1.000000e+01
328.845260	832778.147901	1.200800e-05	1.000000e+01
329.869705	830082.178136	1.204700e-05	1.000000e+01
330.893515	828775.070446	1.206600e-05	1.000000e+01
331.917464	826856.292376	1.209400e-05	1.000000e+01
332.941580	823791.086580	1.213900e-05	1.000000e+01
333.965887	821490.183192	1.217300e-05	1.000000e+01
334.989633	818263.644546	1.222100e-05	1.000000e+01
336.013364	815062.352270	1.226900e-05	1.000000e+01
337.040423	812677.773263	1.230500e-05	1.000000e+01
338.065795	809651.040402	1.235100e-05	1.000000e+01
339.089730	808146.112817	1.237400e-05	1.000000e+01
340.114405	805607.024893	1.241300e-05	1.000000e+01
341.138478	802053.256336	1.246800e-05	1.000000e+01
342.162388	799616.184232	1.250600e-05	1.000000e+01
343.187796	797321.001435	1.254200e-05	1.000000e+01
344.212814	795291.872117	1.257400e-05	1.000000e+01
345.237158	791765.637371	1.263000e-05	1.000000e+01
346.262359	789141.414141	1.267200e-05	1.000000e+01
347.288227	785978.149807	1.272300e-05	1.000000e+01
348.312627	783699.059561	1.276000e-05	1.000000e+01
349.336404	781066.937437	1.280300e-05	1.000000e+01
350.360521	778270.682543	1.284900e-05	1.000000e+01
351.384769	775554.521483	1.289400e-05	1.000000e+01
352.408583	772976.733400	1.293700e-05	1.000000e+01
353.432510	769941.484447	1.298800e-05	1.000000e+01
354.456508	766929.979293	1.303900e-05	1.000000e+01
355.480810	764642.911760	1.307800e-05	1.000000e+01
356.504566	761962.816215	1.312400e-05	1.000000e+01
357.529410	759243.793182	1.317100e-05	1.000000e+01
358.552894	757059.580589	1.320900e-05	1.000000e+01
359.576264	754204.691153	1.325900e-05	1.000000e+01
360.601518	751653.638004	1.330400e-05	1.000000e+01
361.625619	750187.546887	1.333000e-05	1.000000e+01
362.649649	749063.670412	1.335000e-05	1.000000e+01
363.674026	746157.289957	1.340200e-05	1.000000e+01
364.698370	744158.356898	1.343800e-05	1.000000e+01
365.722708	740850.496370	1.349800e-05	1.000000e+01
366.746609	738552.437223	1.354000e-05	1.000000e+01
367.771067	735997.644808	1.358700e-05	1.000000e+01
368.794837	733352.889410	1.363600e-05	1.000000e+01
369.817901	730300.153363	1.369300e-05	1.000000e+01
370.841818	727378.527786	1.374800e-05	1.000000e+01
371.866136	724637.681159	1.380000e-05	1.000000e+01
372.889744	720720.720721	1.387500e-05	1.000000e+01
373.913855	717463.050653	1.393800e-05	1.000000e+01
374.936938	714898.484415	1.398800e-05	1.000000e+01
375.960990	711946.461626	1.404600e-05	1.000000e+01
376.984705	709823.963657	1.408800e-05	1.000000e+01
378.008875	706065.099202	1.416300e-05	1.000000e+01
379.032752	702790.076604	1.422900e-05	1.000000e+01
380.056800	700084.010081	1.428400e-05	1.000000e+01
381.080892	697252.823874	1.434200e-05	1.000000e+01
382.104859	694396.222485	1.440100e-05	1.000000e+01
383.128861	691562.932227	1.446000e-05	1.000000e+01
384.152850	689322.396085	1.450700e-05	1.000000e+01
385.177541	686954.729683	1.455700e-05	1.000000e+01
386.201365	684509.548908	1.460900e-05	1.000000e+01
387.224661	681942.171304	1.466400e-05	1.000000e+01
388.249671	679255.535933	1.472200e-05	1.000000e+01
389.274409	676681.553661	1.477800e-05	1.000000e+01
390.298732	673627.484001	1.484500e-05	1.000000e+01
391.322702	672133.351257	1.487800e-05	1.000000e+01
392.347085	668717.400027	1.495400e-05	1.000000e+01
393.370754	665956.313266	1.501600e-05	1.000000e+01
394.394594	664010.624170	1.506000e-05	1.000000e+01
395.418701	659761.166458	1.515700e-05	1.000000e+01
396.443238	657289.338767	1.521400e-05	1.000000e+01
397.467707	654107.796965	1.528800e-05	1.000000e+01
