Time	SourceV	Current	Voltage
1.049857	6912760.956726	5.786400e-07	4.000000e+00
2.130303	6193005.000852	6.458900e-07	4.000000e+00
3.162179	5828185.103159	6.863200e-07	4.000000e+00
4.190861	5591668.414063	7.153500e-07	4.000000e+00
5.221574	5411694.672187	7.391400e-07	4.000000e+00
6.255995	5289675.875111	7.561900e-07	4.000000e+00
7.280840	5210911.648993	7.676200e-07	4.000000e+00
8.304886	5153178.222669	7.762200e-07	4.000000e+00
9.328775	5073888.501300	7.883500e-07	4.000000e+00
10.352952	4970487.729108	8.047500e-07	4.000000e+00
11.377400	4862985.386729	8.225400e-07	4.000000e+00
12.400924	4761337.935960	8.401000e-07	4.000000e+00
13.423017	4659452.281384	8.584700e-07	4.000000e+00
14.447581	4563084.645220	8.766000e-07	4.000000e+00
15.471673	4473622.403901	8.941300e-07	4.000000e+00
16.495824	4384186.240231	9.123700e-07	4.000000e+00
17.520042	4299503.407356	9.303400e-07	4.000000e+00
18.543998	4224890.945002	9.467700e-07	4.000000e+00
19.568446	4155887.333894	9.624900e-07	4.000000e+00
20.592878	4092490.280336	9.774000e-07	4.000000e+00
21.616838	4026089.057090	9.935200e-07	4.000000e+00
22.641754	3999200.159968	1.000200e-06	4.000000e+00
23.666778	3926573.083342	1.018700e-06	4.000000e+00
24.690844	3866602.223296	1.034500e-06	4.000000e+00
25.714880	3814609.956132	1.048600e-06	4.000000e+00
26.739708	3767897.513188	1.061600e-06	4.000000e+00
27.764607	3720584.131709	1.075100e-06	4.000000e+00
28.788761	3676470.588235	1.088000e-06	4.000000e+00
29.812769	3628447.024673	1.102400e-06	4.000000e+00
30.837191	3577817.531306	1.118000e-06	4.000000e+00
31.860990	3534817.956875	1.131600e-06	4.000000e+00
32.884742	3496503.496503	1.144000e-06	4.000000e+00
33.909492	3462903.644706	1.155100e-06	4.000000e+00
34.933578	3425244.048638	1.167800e-06	4.000000e+00
35.958676	3390979.993218	1.179600e-06	4.000000e+00
36.982753	3357394.661742	1.191400e-06	4.000000e+00
38.006858	3321431.536992	1.204300e-06	4.000000e+00
39.031307	3289473.684211	1.216000e-06	4.000000e+00
40.055826	3262376.641383	1.226100e-06	4.000000e+00
41.079790	3238341.968912	1.235200e-06	4.000000e+00
42.104043	3213109.486706	1.244900e-06	4.000000e+00
43.128051	3191065.017950	1.253500e-06	4.000000e+00
44.151746	3164807.342353	1.263900e-06	4.000000e+00
45.175529	3147128.245476	1.271000e-06	4.000000e+00
46.199682	3124755.878447	1.280100e-06	4.000000e+00
47.223598	3106796.116505	1.287500e-06	4.000000e+00
48.247759	3089518.807446	1.294700e-06	4.000000e+00
49.271715	3070545.789514	1.302700e-06	4.000000e+00
50.295676	3045530.683722	1.313400e-06	4.000000e+00
51.319891	3022517.757292	1.323400e-06	4.000000e+00
52.345010	3001425.677197	1.332700e-06	4.000000e+00
53.368949	2975526.296214	1.344300e-06	4.000000e+00
54.393009	2952901.225454	1.354600e-06	4.000000e+00
55.417219	2935133.548576	1.362800e-06	4.000000e+00
56.440978	2923335.525835	1.368300e-06	4.000000e+00
57.464845	2912904.165453	1.373200e-06	4.000000e+00
58.488859	2896871.378911	1.380800e-06	4.000000e+00
59.514049	2882467.392088	1.387700e-06	4.000000e+00
60.537868	2866767.003512	1.395300e-06	4.000000e+00
61.561079	2855714.999643	1.400700e-06	4.000000e+00
62.584913	2841716.396704	1.407600e-06	4.000000e+00
63.609101	2829054.388571	1.413900e-06	4.000000e+00
64.633940	2819482.624938	1.418700e-06	4.000000e+00
65.657086	2808199.943836	1.424400e-06	4.000000e+00
66.680850	2801905.295601	1.427600e-06	4.000000e+00
67.705237	2790762.575874	1.433300e-06	4.000000e+00
68.728983	2780094.523214	1.438800e-06	4.000000e+00
69.752746	2765486.725664	1.446400e-06	4.000000e+00
70.776815	2751031.636864	1.454000e-06	4.000000e+00
71.801052	2742543.709290	1.458500e-06	4.000000e+00
72.825684	2733547.461218	1.463300e-06	4.000000e+00
73.849986	2720718.269623	1.470200e-06	4.000000e+00
74.874150	2710945.442223	1.475500e-06	4.000000e+00
75.898563	2695781.102574	1.483800e-06	4.000000e+00
76.923627	2684743.942546	1.489900e-06	4.000000e+00
77.947134	2675764.265168	1.494900e-06	4.000000e+00
78.970915	2665600.426496	1.500600e-06	4.000000e+00
79.995191	2652344.009018	1.508100e-06	4.000000e+00
81.018708	2641658.961828	1.514200e-06	4.000000e+00
82.042698	2634351.949420	1.518400e-06	4.000000e+00
83.067979	2623294.858342	1.524800e-06	4.000000e+00
84.092471	2613524.991833	1.530500e-06	4.000000e+00
85.116999	2605354.002475	1.535300e-06	4.000000e+00
86.141145	2596053.997923	1.540800e-06	4.000000e+00
87.165217	2586652.871185	1.546400e-06	4.000000e+00
88.189569	2580145.778236	1.550300e-06	4.000000e+00
89.213027	2573009.134182	1.554600e-06	4.000000e+00
90.238066	2566405.748749	1.558600e-06	4.000000e+00
91.262100	2556727.388942	1.564500e-06	4.000000e+00
92.286339	2548907.156057	1.569300e-06	4.000000e+00
93.309887	2539360.081260	1.575200e-06	4.000000e+00
94.333877	2531805.810494	1.579900e-06	4.000000e+00
95.357725	2527167.045742	1.582800e-06	4.000000e+00
96.381583	2527007.391497	1.582900e-06	4.000000e+00
97.405259	2514616.206701	1.590700e-06	4.000000e+00
98.428919	2502189.415739	1.598600e-06	4.000000e+00
99.453089	2488026.373080	1.607700e-06	4.000000e+00
100.477485	2476780.185759	1.615000e-06	4.000000e+00
101.502088	2467917.077986	1.620800e-06	4.000000e+00
102.526156	2462296.091105	1.624500e-06	4.000000e+00
103.550084	2452182.442374	1.631200e-06	4.000000e+00
104.574230	2446183.953033	1.635200e-06	4.000000e+00
105.598103	2441704.309608	1.638200e-06	4.000000e+00
106.621744	2447531.053050	1.634300e-06	4.000000e+00
107.645205	2432350.258437	1.644500e-06	4.000000e+00
108.669128	2421307.506053	1.652000e-06	4.000000e+00
109.693065	2410509.822828	1.659400e-06	4.000000e+00
110.716173	2400960.384154	1.666000e-06	4.000000e+00
111.740126	2390628.735357	1.673200e-06	4.000000e+00
112.764082	2383648.173530	1.678100e-06	4.000000e+00
113.788838	2376567.048898	1.683100e-06	4.000000e+00
114.813871	2368265.245708	1.689000e-06	4.000000e+00
115.837821	2360299.758069	1.694700e-06	4.000000e+00
116.861261	2352526.024819	1.700300e-06	4.000000e+00
117.885210	2343978.904190	1.706500e-06	4.000000e+00
118.909087	2336994.624912	1.711600e-06	4.000000e+00
119.933034	2329237.756944	1.717300e-06	4.000000e+00
120.957787	2317631.380729	1.725900e-06	4.000000e+00
121.982194	2307869.836141	1.733200e-06	4.000000e+00
123.006267	2300304.790385	1.738900e-06	4.000000e+00
124.030260	2288722.320764	1.747700e-06	4.000000e+00
125.054461	2280761.774433	1.753800e-06	4.000000e+00
126.079014	2274148.615612	1.758900e-06	4.000000e+00
127.102261	2266931.141967	1.764500e-06	4.000000e+00
128.126158	2261675.901843	1.768600e-06	4.000000e+00
129.150080	2255808.707422	1.773200e-06	4.000000e+00
130.174286	2249845.323134	1.777900e-06	4.000000e+00
131.197868	2240645.305848	1.785200e-06	4.000000e+00
132.221180	2236260.971655	1.788700e-06	4.000000e+00
133.245787	2229902.999220	1.793800e-06	4.000000e+00
134.270902	2223086.755961	1.799300e-06	4.000000e+00
135.294329	2214348.981399	1.806400e-06	4.000000e+00
136.318299	2204950.113004	1.814100e-06	4.000000e+00
137.342282	2199978.000220	1.818200e-06	4.000000e+00
138.366277	2193102.692034	1.823900e-06	4.000000e+00
139.390210	2185792.349727	1.830000e-06	4.000000e+00
140.414063	2179836.512262	1.835000e-06	4.000000e+00
141.438899	2172496.198132	1.841200e-06	4.000000e+00
142.463298	2166847.237270	1.846000e-06	4.000000e+00
143.486368	2159011.172883	1.852700e-06	4.000000e+00
144.509394	2150075.252634	1.860400e-06	4.000000e+00
145.533813	2140754.616002	1.868500e-06	4.000000e+00
146.559033	2136181.575434	1.872500e-06	4.000000e+00
147.582926	2129812.044087	1.878100e-06	4.000000e+00
148.606895	2121115.706862	1.885800e-06	4.000000e+00
149.631160	2113494.663426	1.892600e-06	4.000000e+00
150.656192	2106371.774618	1.899000e-06	4.000000e+00
151.680191	2100619.682806	1.904200e-06	4.000000e+00
152.704277	2091612.633340	1.912400e-06	4.000000e+00
153.729368	2087138.012001	1.916500e-06	4.000000e+00
154.754428	2083007.863355	1.920300e-06	4.000000e+00
155.778384	2078569.943879	1.924400e-06	4.000000e+00
156.803227	2072968.490879	1.929600e-06	4.000000e+00
157.827102	2065795.589526	1.936300e-06	4.000000e+00
158.851152	2060156.571899	1.941600e-06	4.000000e+00
159.877023	2056343.820687	1.945200e-06	4.000000e+00
160.900271	2049075.354746	1.952100e-06	4.000000e+00
161.924235	2045198.895593	1.955800e-06	4.000000e+00
162.948181	2039567.611666	1.961200e-06	4.000000e+00
163.972015	2031488.065008	1.969000e-06	4.000000e+00
164.995307	2026958.548698	1.973400e-06	4.000000e+00
166.019544	2021631.456585	1.978600e-06	4.000000e+00
167.043381	2018876.495230	1.981300e-06	4.000000e+00
168.068056	2011364.207774	1.988700e-06	4.000000e+00
169.092916	2005816.868920	1.994200e-06	4.000000e+00
170.116622	1999500.124969	2.000500e-06	4.000000e+00
171.141167	1991932.672676	2.008100e-06	4.000000e+00
172.166153	1984717.673911	2.015400e-06	4.000000e+00
173.191202	1979120.281035	2.021100e-06	4.000000e+00
174.215479	1973067.626893	2.027300e-06	4.000000e+00
175.240135	1967342.120795	2.033200e-06	4.000000e+00
176.265221	1965601.965602	2.035000e-06	4.000000e+00
177.289388	1965119.135348	2.035500e-06	4.000000e+00
178.313223	1963672.066765	2.037000e-06	4.000000e+00
179.337617	1951981.260980	2.049200e-06	4.000000e+00
180.361357	1947798.987145	2.053600e-06	4.000000e+00
181.385279	1940805.434255	2.061000e-06	4.000000e+00
182.409030	1934890.920524	2.067300e-06	4.000000e+00
183.432992	1929943.066680	2.072600e-06	4.000000e+00
184.458276	1924001.924002	2.079000e-06	4.000000e+00
185.482390	1917821.354941	2.085700e-06	4.000000e+00
186.506554	1912960.306074	2.091000e-06	4.000000e+00
187.531904	1906486.821410	2.098100e-06	4.000000e+00
188.556387	1900688.999762	2.104500e-06	4.000000e+00
189.580138	1895914.304673	2.109800e-06	4.000000e+00
190.603286	1889555.482073	2.116900e-06	4.000000e+00
191.627821	1885191.818268	2.121800e-06	4.000000e+00
192.652134	1879522.601259	2.128200e-06	4.000000e+00
193.675610	1873009.926953	2.135600e-06	4.000000e+00
194.699637	1866803.565595	2.142700e-06	4.000000e+00
195.723832	1859773.107681	2.150800e-06	4.000000e+00
196.749123	1853310.475837	2.158300e-06	4.000000e+00
197.772565	1849197.910406	2.163100e-06	4.000000e+00
198.797213	1841959.845275	2.171600e-06	4.000000e+00
199.821857	1838319.775725	2.175900e-06	4.000000e+00
200.846253	1832340.815392	2.183000e-06	4.000000e+00
201.870609	1829156.758734	2.186800e-06	4.000000e+00
202.895120	1823652.776511	2.193400e-06	4.000000e+00
203.918689	1819753.423411	2.198100e-06	4.000000e+00
204.942604	1815293.850692	2.203500e-06	4.000000e+00
205.966388	1812579.300344	2.206800e-06	4.000000e+00
206.990493	1808808.899340	2.211400e-06	4.000000e+00
208.015029	1805298.551248	2.215700e-06	4.000000e+00
209.039430	1801720.643214	2.220100e-06	4.000000e+00
210.064265	1798076.058617	2.224600e-06	4.000000e+00
211.088469	1794848.783990	2.228600e-06	4.000000e+00
212.111950	1791071.508530	2.233300e-06	4.000000e+00
213.135617	1785236.097474	2.240600e-06	4.000000e+00
214.159486	1780943.900267	2.246000e-06	4.000000e+00
215.183314	1773914.586013	2.254900e-06	4.000000e+00
216.207053	1770303.164417	2.259500e-06	4.000000e+00
217.231319	1767955.801105	2.262500e-06	4.000000e+00
218.254463	1765458.798605	2.265700e-06	4.000000e+00
219.278412	1762891.141472	2.269000e-06	4.000000e+00
220.302840	1757855.416392	2.275500e-06	4.000000e+00
221.327458	1753616.834722	2.281000e-06	4.000000e+00
222.352231	1750700.280112	2.284800e-06	4.000000e+00
223.376670	1745429.157394	2.291700e-06	4.000000e+00
224.400745	1740644.038294	2.298000e-06	4.000000e+00
225.425645	1736714.136853	2.303200e-06	4.000000e+00
226.449565	1732651.823616	2.308600e-06	4.000000e+00
227.473462	1728832.605783	2.313700e-06	4.000000e+00
228.497303	1725030.188028	2.318800e-06	4.000000e+00
229.521126	1720578.114246	2.324800e-06	4.000000e+00
230.545228	1714898.177921	2.332500e-06	4.000000e+00
231.568401	1712988.737099	2.335100e-06	4.000000e+00
232.592692	1708306.641042	2.341500e-06	4.000000e+00
233.616551	1701765.581791	2.350500e-06	4.000000e+00
234.640394	1693623.507494	2.361800e-06	4.000000e+00
235.665252	1689902.830587	2.367000e-06	4.000000e+00
236.689190	1688333.614722	2.369200e-06	4.000000e+00
237.714230	1686269.550188	2.372100e-06	4.000000e+00
238.739296	1682935.038708	2.376800e-06	4.000000e+00
239.764243	1678556.441460	2.383000e-06	4.000000e+00
240.787780	1673220.112106	2.390600e-06	4.000000e+00
241.813963	1669309.740422	2.396200e-06	4.000000e+00
242.838695	1666388.935177	2.400400e-06	4.000000e+00
243.862532	1663547.515076	2.404500e-06	4.000000e+00
244.886673	1659957.671079	2.409700e-06	4.000000e+00
245.911218	1657687.525901	2.413000e-06	4.000000e+00
246.935672	1655286.571488	2.416500e-06	4.000000e+00
247.959404	1651732.254202	2.421700e-06	4.000000e+00
248.982719	1647242.927151	2.428300e-06	4.000000e+00
250.007219	1644195.988162	2.432800e-06	4.000000e+00
251.031577	1638874.093498	2.440700e-06	4.000000e+00
252.055554	1633386.418392	2.448900e-06	4.000000e+00
253.079832	1626611.361880	2.459100e-06	4.000000e+00
254.105254	1624101.668764	2.462900e-06	4.000000e+00
255.130234	1623442.509842	2.463900e-06	4.000000e+00
256.154665	1619892.277164	2.469300e-06	4.000000e+00
257.178671	1617272.469979	2.473300e-06	4.000000e+00
258.203100	1614726.303891	2.477200e-06	4.000000e+00
259.227400	1612188.142356	2.481100e-06	4.000000e+00
260.251428	1609075.184038	2.485900e-06	4.000000e+00
261.275421	1607910.921735	2.487700e-06	4.000000e+00
262.299845	1605329.694586	2.491700e-06	4.000000e+00
263.324723	1601537.475977	2.497600e-06	4.000000e+00
264.349453	1596933.886937	2.504800e-06	4.000000e+00
265.372876	1594197.122474	2.509100e-06	4.000000e+00
266.396949	1590836.780146	2.514400e-06	4.000000e+00
267.420833	1585225.696509	2.523300e-06	4.000000e+00
268.444550	1581027.667984	2.530000e-06	4.000000e+00
269.468497	1579591.675552	2.532300e-06	4.000000e+00
270.492827	1575919.943267	2.538200e-06	4.000000e+00
271.516863	1571585.730002	2.545200e-06	4.000000e+00
272.542536	1567705.271409	2.551500e-06	4.000000e+00
273.566788	1564272.026905	2.557100e-06	4.000000e+00
274.590769	1560001.560002	2.564100e-06	4.000000e+00
275.614764	1555572.839698	2.571400e-06	4.000000e+00
276.638890	1550928.618510	2.579100e-06	4.000000e+00
277.662784	1547089.537807	2.585500e-06	4.000000e+00
278.686618	1544163.063620	2.590400e-06	4.000000e+00
279.710746	1540772.697508	2.596100e-06	4.000000e+00
280.735448	1537929.178361	2.600900e-06	4.000000e+00
281.758573	1533918.779001	2.607700e-06	4.000000e+00
282.782532	1530807.500957	2.613000e-06	4.000000e+00
283.806599	1528701.368188	2.616600e-06	4.000000e+00
284.830725	1525203.996034	2.622600e-06	4.000000e+00
285.854570	1522649.409973	2.627000e-06	4.000000e+00
286.878797	1518487.586364	2.634200e-06	4.000000e+00
287.902814	1517680.983457	2.635600e-06	4.000000e+00
288.927479	1516242.750464	2.638100e-06	4.000000e+00
289.950845	1512859.304085	2.644000e-06	4.000000e+00
290.975062	1509946.774376	2.649100e-06	4.000000e+00
291.998847	1506364.389546	2.655400e-06	4.000000e+00
293.023798	1502798.963069	2.661700e-06	4.000000e+00
294.047482	1498969.458497	2.668500e-06	4.000000e+00
295.071656	1496333.981745	2.673200e-06	4.000000e+00
296.095425	1491869.312248	2.681200e-06	4.000000e+00
297.120050	1487099.412596	2.689800e-06	4.000000e+00
298.143395	1484119.916889	2.695200e-06	4.000000e+00
299.166823	1481810.772764	2.699400e-06	4.000000e+00
300.190815	1477705.123943	2.706900e-06	4.000000e+00
301.214671	1471507.927749	2.718300e-06	4.000000e+00
302.239637	1468698.366073	2.723500e-06	4.000000e+00
303.264014	1465577.254241	2.729300e-06	4.000000e+00
304.288797	1462629.808395	2.734800e-06	4.000000e+00
305.312776	1460280.373832	2.739200e-06	4.000000e+00
306.336900	1458895.616019	2.741800e-06	4.000000e+00
307.360953	1457832.203513	2.743800e-06	4.000000e+00
308.384954	1455657.047200	2.747900e-06	4.000000e+00
309.409468	1454175.300833	2.750700e-06	4.000000e+00
310.432941	1451378.809869	2.756000e-06	4.000000e+00
311.457087	1449695.563932	2.759200e-06	4.000000e+00
312.480819	1448278.359101	2.761900e-06	4.000000e+00
313.505509	1444304.025997	2.769500e-06	4.000000e+00
314.528756	1440922.190202	2.776000e-06	4.000000e+00
315.552943	1440455.183838	2.776900e-06	4.000000e+00
316.576749	1443209.698369	2.771600e-06	4.000000e+00
317.601673	1440195.866638	2.777400e-06	4.000000e+00
318.625638	1434257.234035	2.788900e-06	4.000000e+00
319.649748	1431485.524103	2.794300e-06	4.000000e+00
320.673737	1427653.651224	2.801800e-06	4.000000e+00
321.697558	1422981.145500	2.811000e-06	4.000000e+00
322.720858	1418540.322009	2.819800e-06	4.000000e+00
323.744942	1414977.537232	2.826900e-06	4.000000e+00
324.768925	1411432.604093	2.834000e-06	4.000000e+00
325.795762	1407905.388758	2.841100e-06	4.000000e+00
326.819645	1404494.382022	2.848000e-06	4.000000e+00
327.843811	1401001.716227	2.855100e-06	4.000000e+00
328.867902	1398308.047263	2.860600e-06	4.000000e+00
329.891894	1395673.412421	2.866000e-06	4.000000e+00
330.915913	1393388.372174	2.870700e-06	4.000000e+00
331.939766	1390772.226279	2.876100e-06	4.000000e+00
332.963689	1390143.879892	2.877400e-06	4.000000e+00
333.987900	1387203.051847	2.883500e-06	4.000000e+00
335.011710	1384801.800242	2.888500e-06	4.000000e+00
336.035779	1381120.088392	2.896200e-06	4.000000e+00
337.059720	1378787.356520	2.901100e-06	4.000000e+00
338.083827	1376462.491397	2.906000e-06	4.000000e+00
339.107851	1374475.981032	2.910200e-06	4.000000e+00
340.132174	1372683.596431	2.914000e-06	4.000000e+00
341.156649	1369440.925742	2.920900e-06	4.000000e+00
342.180911	1366540.261692	2.927100e-06	4.000000e+00
343.205760	1363884.342608	2.932800e-06	4.000000e+00
344.229573	1360868.233933	2.939300e-06	4.000000e+00
345.254702	1358557.212241	2.944300e-06	4.000000e+00
346.278858	1355978.168751	2.949900e-06	4.000000e+00
347.302859	1353088.424329	2.956200e-06	4.000000e+00
348.326694	1348981.518953	2.965200e-06	4.000000e+00
349.351177	1345804.454613	2.972200e-06	4.000000e+00
350.376762	1342011.675502	2.980600e-06	4.000000e+00
351.400807	1340886.996748	2.983100e-06	4.000000e+00
352.424700	1340482.573727	2.984000e-06	4.000000e+00
353.449302	1339315.609723	2.986600e-06	4.000000e+00
354.474044	1338777.695964	2.987800e-06	4.000000e+00
355.498071	1336183.858899	2.993600e-06	4.000000e+00
356.521999	1332578.205683	3.001700e-06	4.000000e+00
357.546534	1331380.641725	3.004400e-06	4.000000e+00
358.570768	1328550.551348	3.010800e-06	4.000000e+00
359.594813	1326743.838933	3.014900e-06	4.000000e+00
360.619074	1324854.266031	3.019200e-06	4.000000e+00
361.643608	1322139.221260	3.025400e-06	4.000000e+00
362.667655	1320393.477256	3.029400e-06	4.000000e+00
363.691117	1314794.727673	3.042300e-06	4.000000e+00
364.715129	1311260.449107	3.050500e-06	4.000000e+00
365.739097	1310444.240598	3.052400e-06	4.000000e+00
366.763767	1308258.381030	3.057500e-06	4.000000e+00
367.787126	1304291.117777	3.066800e-06	4.000000e+00
368.810994	1302846.720083	3.070200e-06	4.000000e+00
369.835481	1301701.975333	3.072900e-06	4.000000e+00
370.860190	1297858.533420	3.082000e-06	4.000000e+00
371.883890	1294959.370650	3.088900e-06	4.000000e+00
372.908090	1293702.901129	3.091900e-06	4.000000e+00
373.933004	1293075.580268	3.093400e-06	4.000000e+00
374.957776	1291530.786865	3.097100e-06	4.000000e+00
375.982139	1289906.481780	3.101000e-06	4.000000e+00
377.006167	1287705.630493	3.106300e-06	4.000000e+00
378.030313	1285553.591515	3.111500e-06	4.000000e+00
379.054883	1283532.280837	3.116400e-06	4.000000e+00
380.079099	1280409.731114	3.124000e-06	4.000000e+00
381.102887	1278077.771032	3.129700e-06	4.000000e+00
382.127795	1274534.794800	3.138400e-06	4.000000e+00
383.151703	1273723.092600	3.140400e-06	4.000000e+00
384.176050	1271213.373165	3.146600e-06	4.000000e+00
385.199986	1268110.198776	3.154300e-06	4.000000e+00
386.223974	1265342.275085	3.161200e-06	4.000000e+00
387.247938	1263623.440215	3.165500e-06	4.000000e+00
388.272196	1260517.442410	3.173300e-06	4.000000e+00
389.296212	1257584.808376	3.180700e-06	4.000000e+00
390.320343	1254115.065057	3.189500e-06	4.000000e+00
391.344232	1251564.455569	3.196000e-06	4.000000e+00
392.368069	1248322.566551	3.204300e-06	4.000000e+00
393.392984	1245174.947080	3.212400e-06	4.000000e+00
394.417076	1244206.662727	3.214900e-06	4.000000e+00
395.441022	1242776.362394	3.218600e-06	4.000000e+00
